,time,x,y,theta
0,0.0,0.0014071911573410034,-0.0026238164864480495,-0.010433290828741448
1,0.00508313,0.0013931244611740112,-0.002652765717357397,-0.010323416659849594
2,0.008062633,0.0013754963874816895,-0.002657822798937559,-0.009979531696245436
3,0.011946164,0.0013434886932373047,-0.0026863766834139824,-0.010028876732678604
4,0.016126856,0.001299336552619934,-0.0026971218176186085,-0.010248990763667143
5,0.020169091,0.001269906759262085,-0.0027002780698239803,-0.010308003644384556
6,0.024758169,0.0012012273073196411,-0.0025620032101869583,-0.014850728511478284
7,0.029463471,0.0010472983121871948,-0.0027021911228075624,-0.01634101584853198
8,0.033471829,0.0009563416242599487,-0.002786196768283844,-0.01680928603517562
9,0.037369858,0.000921592116355896,-0.0028091194108128548,-0.017095870001704982
10,0.041269424,0.0009009093046188354,-0.002806134754791856,-0.017097169493242026
11,0.046369164,0.0008621066808700562,-0.002836671657860279,-0.015970476156912827
12,0.049306163,0.0008667856454849243,-0.002840386121533811,-0.016514685301878274
13,0.053473232,0.0008466541767120361,-0.0028712115017697215,-0.01622335290576027
14,0.0580588,0.0008400380611419678,-0.0029066719580441713,-0.015318050387869153
15,0.062401627,0.0008323490619659424,-0.0029347252566367388,-0.015055979148213217
16,0.066492964,0.0007718801498413086,-0.0029198493575677276,-0.01542318235741491
17,0.070581661,0.0007967054843902588,-0.0029857518384233117,-0.014571616434550405
18,0.074261406,0.0007699280977249146,-0.002997420378960669,-0.0141147752547095
19,0.078581314,0.0007447004318237305,-0.003010791609995067,-0.014088362715630076
20,0.082803707,0.000710606575012207,-0.003025034093298018,-0.01368759267460562
21,0.087364088,0.0007047802209854126,-0.0030494474340230227,-0.013590889810168871
22,0.091423437,0.0006887167692184448,-0.0030583752086386085,-0.013898917234541619
23,0.09555376,0.0007050484418869019,-0.0031170640140771866,-0.012549856158845074
24,0.09984897,0.0006590336561203003,-0.003120341105386615,-0.012510001578827534
25,0.103643897,0.0006587207317352295,-0.0031541315838694572,-0.012044754017161319
26,0.106991369,0.0006635934114456177,-0.0031783271115273237,-0.011611866319819919
27,0.113724293,0.0006392598152160645,-0.0032119774259626865,-0.011328953585284962
28,0.115936145,0.0006362348794937134,-0.0032453432213515043,-0.01110584480689214
29,0.120750805,0.000612899661064148,-0.0032769988756626844,-0.01140237747490036
30,0.125195377,0.0006032437086105347,-0.0032818702748045325,-0.011340287823278006
31,0.129038763,0.0005671828985214233,-0.0032962150871753693,-0.010816135263578275
32,0.133138906,0.0007018297910690308,-0.0035183525178581476,-0.005883519694270589
33,0.137004712,0.0007099658250808716,-0.003554699709638953,-0.005855411355405682
34,0.141090875,0.0007199794054031372,-0.0035772137343883514,-0.005358730474635642
35,0.145106,0.0006154477596282959,-0.0035183303989470005,-0.0063209108398312175
36,0.150162673,0.0006983727216720581,-0.003608902683481574,-0.00527888003866428
37,0.153772231,0.0005906969308853149,-0.0035700767766684294,-0.006548809352779461
38,0.157199205,0.000573471188545227,-0.0035769164096564054,-0.0066662667547550125
39,0.162147374,0.0005838125944137573,-0.0035945416893810034,-0.006557043806606044
40,0.166409232,0.0005831271409988403,-0.0036289175041019917,-0.0057998266199443815
41,0.17009032,0.00033026933670043945,-0.0036026585148647428,-0.004572508855427815
42,0.174451377,9.194016456604004e-05,-0.003623201744630933,-0.003293263151457282
43,0.179348116,-2.345442771911621e-05,-0.00367473007645458,-0.0012802323157885542
44,0.183430933,0.0006832033395767212,-0.003754911944270134,-0.0022901787394131734
45,0.18701322,0.0006203800439834595,-0.003731064556632191,-0.004900857334358744
46,0.191745057,0.000835716724395752,-0.003739345585927367,-0.0016506347867757398
47,0.195266687,0.0009011179208755493,-0.0038069026195444167,-0.0003875145220917364
48,0.199429231,0.0009677708148956299,-0.003897861810401082,0.0041757262914099424
49,0.203339738,0.0009493976831436157,-0.0039528117049485445,0.00470679294953924
50,0.207266962,0.0006453543901443481,-0.0036479542031884193,-0.006237925822784041
51,0.211948572,0.0008805692195892334,-0.003942918585380539,6.637922603514035e-05
52,0.21643912,0.0007969588041305542,-0.0038245062169153243,-0.0046453152425907085
53,0.220546949,0.00040702521800994873,-0.0035283369943499565,-0.010081045554897416
54,0.224707533,0.0008706152439117432,-0.003856901079416275,-0.0128144695108392
55,0.228015818,0.0008217990398406982,-0.0038366690278053284,-0.012823810157264859
56,0.232768594,0.0009029656648635864,-0.0039637284353375435,-0.010778495071515959
57,0.236785618,0.000531315803527832,-0.00381156406365335,-0.013128875787548955
58,0.241259524,0.00034174323081970215,-0.003903120872564614,-0.010814920046289034
59,0.245892021,0.00037123262882232666,-0.004078775877133012,-0.0038874993828483806
60,0.249765349,0.0002925395965576172,-0.004084067884832621,-0.0032237151657650287
61,0.254358388,0.00011008977890014648,-0.0038940012454986572,-0.006507830726631747
62,0.257418773,0.0003590583801269531,-0.004045604262501001,-0.005758885436988992
63,0.261817529,0.00032207369804382324,-0.004034233512356877,-0.006606479371776608
64,0.266337285,0.0003395676612854004,-0.004066015244461596,-0.006694601783974408
65,0.270043427,-0.00024338066577911377,-0.0039066108874976635,-0.0103814782848195
66,0.275028304,0.00029505789279937744,-0.004189252154901624,-0.004685352244372387
67,0.279078036,0.000362396240234375,-0.004224384261760861,-0.005012473295298747
68,0.283781855,0.0003169327974319458,-0.004314583304221742,-0.0005819226268461986
69,0.287302552,0.00033949315547943115,-0.004388103319797665,-0.0022924802156789603
70,0.290902255,0.00024777650833129883,-0.004401807731483132,-0.003463508089851741
71,0.295125534,3.375113010406494e-05,-0.0043588483822532,-0.005991845644494065
72,0.299350964,-0.0003193318843841553,-0.0043327827006578445,-0.004871164227628011
73,0.303870622,-6.352365016937256e-05,-0.004404647974297404,-0.008184324463807124
74,0.307194321,0.00014591217041015625,-0.004479141905903816,-0.006618487224586245
75,0.312236383,0.0001945197582244873,-0.004508664831519127,-0.004991077750585049
76,0.316371795,-2.4333596229553223e-05,-0.004489486454986036,-0.003192626734290549
77,0.320226206,0.00018958747386932373,-0.004591089440509677,-0.004708369165149939
78,0.324281778,0.00014482438564300537,-0.004603487206622958,-0.0044624332322302784
79,0.328711568,0.00011943280696868896,-0.004623976768925786,-0.004715038497791202
80,0.333006565,0.0003769397735595703,-0.004942155152093619,4.485305830792541e-05
81,0.337302805,0.0006314963102340698,-0.0051681604236364365,0.0038957348095429722
82,0.341139399,0.0005206167697906494,-0.0049190036952495575,0.0006331999337090277
83,0.345401175,0.000318184494972229,-0.004902949556708336,0.002097759364064977
84,0.34957317,0.00023196637630462646,-0.004950417205691338,0.0031951323088872385
85,0.353493893,0.0009258538484573364,-0.0054327091202139854,0.010847051295029386
86,0.357453742,0.0009898543357849121,-0.00556204654276371,0.012037683891571449
87,0.362255618,0.0009038746356964111,-0.005478193983435631,0.010624169347164925
88,0.366477247,0.0008788406848907471,-0.005488079972565174,0.010256749624899975
89,0.370517002,0.0012198388576507568,-0.005629220511764288,0.0018836359460976393
90,0.374592094,0.0011985749006271362,-0.00564595521427691,0.001624589708099089
91,0.378892369,0.000974014401435852,-0.005419800523668528,-0.002971881951771671
92,0.382901123,0.0007974803447723389,-0.005353098269551992,-0.004094656547002584
93,0.387230301,0.0007560104131698608,-0.0053568086586892605,-0.0051117172319405935
94,0.391121626,0.000758633017539978,-0.005393218249082565,-0.004536313131418002
95,0.395731692,0.0007947832345962524,-0.0054610539227724075,-0.004392853218317949
96,0.399852352,0.0008280575275421143,-0.0055176494643092155,-0.003847103232451632
97,0.403893732,0.0008988529443740845,-0.005609868094325066,-0.0031897172826840237
98,0.407233464,0.0008990615606307983,-0.005649841856211424,-0.0029084669783250305
99,0.412317897,0.0008095651865005493,-0.005631919950246811,-0.0041466283394513415
100,0.41630411,-0.0002739429473876953,-0.005108060082420707,-0.012855108452518804
101,0.420428924,-0.00012746453285217285,-0.005129452678374946,-0.0157040966922406
102,0.424358422,-0.0001866668462753296,-0.00497735571116209,-0.01383489701474283
103,0.428915319,0.0002330094575881958,-0.005256935488432646,-0.016225859434093604
104,0.432886946,0.0003755837678909302,-0.005459466832689941,-0.01269506936428444
105,0.437264976,-0.0003330111503601074,-0.0049194213934242725,-0.016181792241665605
106,0.441441035,-0.000421866774559021,-0.005085323471575975,-0.01162656044988486
107,0.445533543,-0.00015516579151153564,-0.005399736110121012,-0.007079430144137477
108,0.449685835,0.0003651082515716553,-0.005655329674482346,-0.013768931246544991
109,0.453773324,-2.454221248626709e-05,-0.005790540832094848,-0.00349660235198046
110,0.458132219,0.00033345818519592285,-0.005948618520051241,-0.009149540982336113
111,0.462329063,0.00034208595752716064,-0.006046184804290533,-0.008658180523392511
112,0.466449347,0.00030550360679626465,-0.006085663568228483,-0.008219686911855595
113,0.471024072,0.00023412704467773438,-0.006050814175978303,-0.009850780431353678
114,0.474611734,-0.00012017786502838135,-0.006104077212512493,-0.001102468691263292
115,0.478939785,0.00022456049919128418,-0.006038619903847575,-0.011714694040888096
116,0.48310622,-0.0011834800243377686,-0.0051414137706160545,-0.01981771800898513
117,0.487370347,-0.0017116665840148926,-0.005176344886422157,-0.017697589187575913
118,0.491745274,-0.0016040802001953125,-0.005298064090311527,-0.01909453028798458
119,0.495782892,-0.0015985816717147827,-0.005548242479562759,-0.021886518680770406
120,0.499633532,-0.0017664581537246704,-0.005455325357615948,-0.021783605378313364
121,0.50365398,-0.0019351840019226074,-0.005391458980739117,-0.020607534229877267
122,0.507366303,-0.0017701983451843262,-0.005530081689357758,-0.022587742904151664
123,0.511872677,-0.0018153190612792969,-0.005719339475035667,-0.02331721848652535
124,0.516074907,-0.0018758922815322876,-0.005674373358488083,-0.023042198909521527
125,0.520160635,-0.0017114877700805664,-0.0056611038744449615,-0.021630878222335115
126,0.524220083,-0.0017739832401275635,-0.005619808100163937,-0.021488442425189325
127,0.528539731,-0.0021363645792007446,-0.0056422408670187,-0.023037971759577447
128,0.532898494,-0.002248331904411316,-0.005360448732972145,-0.02313835663808006
129,0.537229926,-0.0023082345724105835,-0.005387242883443832,-0.02310560695574515
130,0.541275723,-0.0022825002670288086,-0.005400504916906357,-0.023261837155354126
131,0.545524322,-0.002352192997932434,-0.005547905340790749,-0.024700232057452753
132,0.549579487,-0.0023328810930252075,-0.005466936156153679,-0.023356784085959204
133,0.553339571,-0.0023624151945114136,-0.005408484488725662,-0.024619978146144028
134,0.557346889,-0.0028772056102752686,-0.005630470812320709,-0.022924552348103866
135,0.562033745,-0.0028277933597564697,-0.005790188908576965,-0.023388832461503917
136,0.566232333,-0.0029899626970291138,-0.0058060139417648315,-0.021736275197796084
137,0.570315031,-0.0030471086502075195,-0.005905020982027054,-0.02085957046858633
138,0.575159389,-0.0030289441347122192,-0.005843477323651314,-0.022672183080847397
139,0.578293742,-0.0029960572719573975,-0.005744943395256996,-0.02445030022914052
140,0.582933683,-0.0030527710914611816,-0.005804076790809631,-0.02493308200732902
141,0.586719355,-0.0031353533267974854,-0.00584397092461586,-0.02374331822282838
142,0.59075716,-0.003167957067489624,-0.00590251199901104,-0.02334373686712743
143,0.595390806,-0.003144979476928711,-0.005801837891340256,-0.02025677682309701
144,0.599644661,-0.0032042115926742554,-0.005818269215524197,-0.019311915900715793
145,0.603726278,-0.00319574773311615,-0.005883028730750084,-0.019610893577738597
146,0.60803211,-0.0031833797693252563,-0.0060619693249464035,-0.02160045840217073
147,0.61174397,-0.003192707896232605,-0.00611083023250103,-0.02278634923155831
148,0.616290536,-0.0032312721014022827,-0.005920391529798508,-0.02219433033469609
149,0.619973587,-0.0032298415899276733,-0.005890050902962685,-0.02191261756028906
150,0.624247029,-0.00329434871673584,-0.006095509976148605,-0.022476358485125747
151,0.628847346,-0.0033058971166610718,-0.006186643615365028,-0.022282780492520526
152,0.63267302,-0.0033587664365768433,-0.0060752201825380325,-0.020002976076082035
153,0.636958665,-0.0034324973821640015,-0.006233174353837967,-0.01932366844724509
154,0.641055657,-0.0035961270332336426,-0.0063857403583824635,-0.017837447856539512
155,0.645536918,-0.0037315934896469116,-0.00639869412407279,-0.016614301858748792
156,0.649030484,-0.003888353705406189,-0.0063322619535028934,-0.01495544136413307
157,0.65406487,-0.003975719213485718,-0.00635791290551424,-0.014967372811210522
158,0.657783271,-0.004005134105682373,-0.006360768340528011,-0.015625982332720056
159,0.661694467,-0.004048928618431091,-0.006333689205348492,-0.015142667069017568
160,0.666166981,-0.00407157838344574,-0.006390329683199525,-0.015478899563779569
161,0.670250163,-0.004081323742866516,-0.006451691500842571,-0.015690877396298042
162,0.674372512,-0.004088237881660461,-0.00646761991083622,-0.015695162185264344
163,0.678587766,-0.004084721207618713,-0.00650781998410821,-0.01604667119750869
164,0.682735819,-0.004072457551956177,-0.006356989499181509,-0.014372312582946467
165,0.686773316,-0.0040680766105651855,-0.006342390552163124,-0.013239994866806049
166,0.691249376,-0.004038512706756592,-0.006281537702307105,-0.014558579089940737
167,0.695567298,-0.004033222794532776,-0.006353553384542465,-0.015566015200305205
168,0.699669445,-0.004087969660758972,-0.0064975363202393055,-0.01544092799246144
169,0.703908581,-0.004064232110977173,-0.006445378065109253,-0.017888016024262487
170,0.707299024,-0.0040892064571380615,-0.006496151210740209,-0.01862331227563563
171,0.711760476,-0.004301339387893677,-0.006844205781817436,-0.013851866655540723
172,0.715840239,-0.004390805959701538,-0.006871291669085622,-0.011781068840433395
173,0.720565661,-0.004399970173835754,-0.0068122828379273415,-0.011017445845767915
174,0.724709401,-0.004430264234542847,-0.00687490776181221,-0.01186762783219053
175,0.729139693,-0.00437009334564209,-0.006791610270738602,-0.013677235345727956
176,0.733513517,-0.004445463418960571,-0.006916008656844497,-0.011444036328827512
177,0.737019425,-0.004511013627052307,-0.0069170568604022264,-0.011425378260662589
178,0.740819824,-0.004543513059616089,-0.006928223418071866,-0.011629333509822981
179,0.745099222,-0.004572466015815735,-0.006944985128939152,-0.011923668852851232
180,0.749172423,-0.004607841372489929,-0.00698070926591754,-0.012051675756864721
181,0.753392005,-0.0046350955963134766,-0.0070203617215156555,-0.01199109085447958
182,0.757196021,-0.004669010639190674,-0.007032659370452166,-0.011775051042302698
183,0.761761919,-0.004696682095527649,-0.007055822527036071,-0.011834082953972924
184,0.766273771,-0.004728496074676514,-0.007167375646531582,-0.011387889241541549
185,0.770604745,-0.0047711580991744995,-0.007134754676371813,-0.011728841095034026
186,0.774787671,-0.00481000542640686,-0.007166614523157477,-0.011836960483189163
187,0.779037388,-0.004845976829528809,-0.0072165667079389095,-0.011842020471753312
188,0.782995463,-0.004875734448432922,-0.007238122634589672,-0.011900804200037474
189,0.786968533,-0.004859060049057007,-0.007141227601096034,-0.0134521566900625
190,0.791063942,-0.004960238933563232,-0.007387102581560612,-0.012251118599161614
191,0.795130993,-0.00501289963722229,-0.007447436219081283,-0.011806562071764226
192,0.799251162,-0.0050310492515563965,-0.007491916883736849,-0.011564468136592287
193,0.803378153,-0.0050668865442276,-0.0075307064689695835,-0.011419312487055633
194,0.807341999,-0.005092129111289978,-0.00756230647675693,-0.011818937240980487
195,0.811956589,-0.005131453275680542,-0.007582004647701979,-0.012079146557834042
196,0.816358315,-0.005178973078727722,-0.007602458354085684,-0.01240018781885932
197,0.820514874,-0.005235433578491211,-0.007771050790324807,-0.012972034694818335
198,0.824661871,-0.005305394530296326,-0.007913456298410892,-0.012991661898381412
199,0.828582164,-0.005353584885597229,-0.007894900627434254,-0.014048090264557889
200,0.832895062,-0.005386665463447571,-0.007867189357057214,-0.01418449170240188
201,0.836783791,-0.005415409803390503,-0.007926095742732286,-0.014523446028128939
202,0.841122169,-0.005445629358291626,-0.007964974269270897,-0.014797108203729481
203,0.845559441,-0.005470931529998779,-0.007994966581463814,-0.014905781775305327
204,0.849451124,-0.0055109113454818726,-0.008030070923268795,-0.014963689673674674
205,0.85399486,-0.00554637610912323,-0.008061758242547512,-0.014985379158444445
206,0.857841293,-0.005560711026191711,-0.008069154806435108,-0.014800665140482172
207,0.862600922,-0.005581885576248169,-0.008078187704086304,-0.014658194445125172
208,0.866108016,-0.005523756146430969,-0.007931176573038101,-0.016451040547722062
209,0.870136316,-0.005617871880531311,-0.008016910403966904,-0.015437325196979712
210,0.874413419,-0.00567096471786499,-0.008019813802093267,-0.014514540850735003
211,0.878416571,-0.0056774914264678955,-0.008085431531071663,-0.013755592209758527
212,0.882646666,-0.005731359124183655,-0.008073317352682352,-0.01567666522579736
213,0.886875663,-0.005748763680458069,-0.008069184608757496,-0.0166560874640842
214,0.891577892,-0.005775392055511475,-0.008059050422161818,-0.01711744178904695
215,0.895419872,-0.0058058202266693115,-0.008125886786729097,-0.0167339280240979
216,0.899818537,-0.00584922730922699,-0.008194324560463428,-0.016382938146096482
217,0.904192932,-0.005886644124984741,-0.008220935706049204,-0.016908916343175928
218,0.907273541,-0.005952581763267517,-0.008350661024451256,-0.016654010592808355
219,0.911749414,-0.006023675203323364,-0.008620576933026314,-0.014755415813334727
220,0.915838743,-0.006070643663406372,-0.008836464956402779,-0.014219889864966806
221,0.919989046,-0.006130918860435486,-0.00886500347405672,-0.014683296360144205
222,0.924620664,-0.006161794066429138,-0.008891968987882137,-0.01404981070688538
223,0.928919729,-0.006193414330482483,-0.008862074930220842,-0.014504429101580563
224,0.933022602,-0.006211042404174805,-0.00889756390824914,-0.014762671849273712
225,0.937435558,-0.006239995360374451,-0.008949121925979853,-0.014897192036449791
226,0.941532707,-0.006290361285209656,-0.008951155934482813,-0.015658608716342837
227,0.94517918,-0.006318032741546631,-0.008978583849966526,-0.016053939121368543
228,0.950205714,-0.006349578499794006,-0.008989549241960049,-0.016369284599697442
229,0.953865156,-0.0063885897397994995,-0.00909498706459999,-0.01696833302257894
230,0.957247684,-0.006417632102966309,-0.00903259590268135,-0.01698768244419835
231,0.96212848,-0.006449475884437561,-0.00909307599067688,-0.017080235462185067
232,0.966378307,-0.006468191742897034,-0.009144837502390146,-0.017262964978262296
233,0.970100101,-0.006494045257568359,-0.009183740243315697,-0.017851505237952203
234,0.974547807,-0.006548568606376648,-0.00922781741246581,-0.017742203175470594
235,0.978514245,-0.006583347916603088,-0.00926119089126587,-0.017624899489471435
236,0.983264043,-0.006625041365623474,-0.009305956307798624,-0.01771245856302217
237,0.987259104,-0.00670236349105835,-0.009398580994457006,-0.01822872914469209
238,0.991293615,-0.006706699728965759,-0.0094907246530056,-0.017542771771043242
239,0.995291973,-0.006744936108589172,-0.009474502876400948,-0.0176466493065921
240,0.999690819,-0.0068041980266571045,-0.009491217788308859,-0.01806465271789559
241,1.003526345,-0.006862267851829529,-0.0095314159989357,-0.01911930087072289
242,1.007489472,-0.006898596882820129,-0.009560008067637682,-0.019157798839295692
243,1.011852221,-0.00691571831703186,-0.009604341816157103,-0.019531610371283037
244,1.015951791,-0.006784290075302124,-0.009595944546163082,-0.018451050507011013
