,time,x,y,theta
0,1.6666891540725727e+18,0.0014071911573410034,-0.0026238164864480495,-0.010433290828741448
1,1.6666891540776558e+18,0.0013931244611740112,-0.002652765717357397,-0.010323416659849594
2,1.6666891540806354e+18,0.0013754963874816895,-0.002657822798937559,-0.009979531696245436
3,1.666689154084519e+18,0.0013434886932373047,-0.0026863766834139824,-0.010028876732678604
4,1.6666891540886996e+18,0.001299336552619934,-0.0026971218176186085,-0.010248990763667143
5,1.666689154092742e+18,0.001269906759262085,-0.0027002780698239803,-0.010308003644384556
6,1.666689154097331e+18,0.0012012273073196411,-0.0025620032101869583,-0.014850728511478284
7,1.6666891541020362e+18,0.0010472983121871948,-0.0027021911228075624,-0.01634101584853198
8,1.6666891541060447e+18,0.0009563416242599487,-0.002786196768283844,-0.01680928603517562
9,1.6666891541099425e+18,0.000921592116355896,-0.0028091194108128548,-0.017095870001704982
10,1.6666891541138422e+18,0.0009009093046188354,-0.002806134754791856,-0.017097169493242026
11,1.666689154118942e+18,0.0008621066808700562,-0.002836671657860279,-0.015970476156912827
12,1.666689154121879e+18,0.0008667856454849243,-0.002840386121533811,-0.016514685301878274
13,1.666689154126046e+18,0.0008466541767120361,-0.0028712115017697215,-0.01622335290576027
14,1.6666891541306317e+18,0.0008400380611419678,-0.0029066719580441713,-0.015318050387869153
15,1.6666891541349745e+18,0.0008323490619659424,-0.0029347252566367388,-0.015055979148213217
16,1.6666891541390659e+18,0.0007718801498413086,-0.0029198493575677276,-0.01542318235741491
17,1.6666891541431544e+18,0.0007967054843902588,-0.0029857518384233117,-0.014571616434550405
18,1.6666891541468342e+18,0.0007699280977249146,-0.002997420378960669,-0.0141147752547095
19,1.6666891541511542e+18,0.0007447004318237305,-0.003010791609995067,-0.014088362715630076
20,1.6666891541553764e+18,0.000710606575012207,-0.003025034093298018,-0.01368759267460562
21,1.6666891541599368e+18,0.0007047802209854126,-0.0030494474340230227,-0.013590889810168871
22,1.6666891541639962e+18,0.0006887167692184448,-0.0030583752086386085,-0.013898917234541619
23,1.6666891541681265e+18,0.0007050484418869019,-0.0031170640140771866,-0.012549856158845074
24,1.666689154172422e+18,0.0006590336561203003,-0.003120341105386615,-0.012510001578827534
25,1.6666891541762166e+18,0.0006587207317352295,-0.0031541315838694572,-0.012044754017161319
26,1.666689154179564e+18,0.0006635934114456177,-0.0031783271115273237,-0.011611866319819919
27,1.666689154186297e+18,0.0006392598152160645,-0.0032119774259626865,-0.011328953585284962
28,1.666689154188509e+18,0.0006362348794937134,-0.0032453432213515043,-0.01110584480689214
29,1.6666891541933235e+18,0.000612899661064148,-0.0032769988756626844,-0.01140237747490036
30,1.6666891541977682e+18,0.0006032437086105347,-0.0032818702748045325,-0.011340287823278006
31,1.6666891542016115e+18,0.0005671828985214233,-0.0032962150871753693,-0.010816135263578275
32,1.6666891542057116e+18,0.0007018297910690308,-0.0035183525178581476,-0.005883519694270589
33,1.6666891542095775e+18,0.0007099658250808716,-0.003554699709638953,-0.005855411355405682
34,1.6666891542136637e+18,0.0007199794054031372,-0.0035772137343883514,-0.005358730474635642
35,1.6666891542176788e+18,0.0006154477596282959,-0.0035183303989470005,-0.0063209108398312175
36,1.6666891542227354e+18,0.0006983727216720581,-0.003608902683481574,-0.00527888003866428
37,1.666689154226345e+18,0.0005906969308853149,-0.0035700767766684294,-0.006548809352779461
38,1.666689154229772e+18,0.000573471188545227,-0.0035769164096564054,-0.0066662667547550125
39,1.6666891542347203e+18,0.0005838125944137573,-0.0035945416893810034,-0.006557043806606044
40,1.6666891542389821e+18,0.0005831271409988403,-0.0036289175041019917,-0.0057998266199443815
41,1.6666891542426632e+18,0.00033026933670043945,-0.0036026585148647428,-0.004572508855427815
42,1.666689154247024e+18,9.194016456604004e-05,-0.003623201744630933,-0.003293263151457282
43,1.666689154251921e+18,-2.345442771911621e-05,-0.00367473007645458,-0.0012802323157885542
44,1.6666891542560038e+18,0.0006832033395767212,-0.003754911944270134,-0.0022901787394131734
45,1.666689154259586e+18,0.0006203800439834595,-0.003731064556632191,-0.004900857334358744
46,1.666689154264318e+18,0.000835716724395752,-0.003739345585927367,-0.0016506347867757398
47,1.6666891542678395e+18,0.0009011179208755493,-0.0038069026195444167,-0.0003875145220917364
48,1.666689154272002e+18,0.0009677708148956299,-0.003897861810401082,0.0041757262914099424
49,1.6666891542759124e+18,0.0009493976831436157,-0.0039528117049485445,0.00470679294953924
50,1.6666891542798397e+18,0.0006453543901443481,-0.0036479542031884193,-0.006237925822784041
51,1.6666891542845215e+18,0.0008805692195892334,-0.003942918585380539,6.637922603514035e-05
52,1.666689154289012e+18,0.0007969588041305542,-0.0038245062169153243,-0.0046453152425907085
53,1.6666891542931197e+18,0.00040702521800994873,-0.0035283369943499565,-0.010081045554897416
54,1.6666891542972803e+18,0.0008706152439117432,-0.003856901079416275,-0.0128144695108392
55,1.6666891543005885e+18,0.0008217990398406982,-0.0038366690278053284,-0.012823810157264859
56,1.6666891543053414e+18,0.0009029656648635864,-0.0039637284353375435,-0.010778495071515959
57,1.6666891543093583e+18,0.000531315803527832,-0.00381156406365335,-0.013128875787548955
58,1.6666891543138322e+18,0.00034174323081970215,-0.003903120872564614,-0.010814920046289034
59,1.6666891543184648e+18,0.00037123262882232666,-0.004078775877133012,-0.0038874993828483806
60,1.666689154322338e+18,0.0002925395965576172,-0.004084067884832621,-0.0032237151657650287
61,1.6666891543269312e+18,0.00011008977890014648,-0.0038940012454986572,-0.006507830726631747
62,1.6666891543299917e+18,0.0003590583801269531,-0.004045604262501001,-0.005758885436988992
63,1.6666891543343903e+18,0.00032207369804382324,-0.004034233512356877,-0.006606479371776608
64,1.66668915433891e+18,0.0003395676612854004,-0.004066015244461596,-0.006694601783974408
65,1.6666891543426163e+18,-0.00024338066577911377,-0.0039066108874976635,-0.0103814782848195
66,1.6666891543476012e+18,0.00029505789279937744,-0.004189252154901624,-0.004685352244372387
67,1.6666891543516508e+18,0.000362396240234375,-0.004224384261760861,-0.005012473295298747
68,1.6666891543563546e+18,0.0003169327974319458,-0.004314583304221742,-0.0005819226268461986
69,1.6666891543598753e+18,0.00033949315547943115,-0.004388103319797665,-0.0022924802156789603
70,1.666689154363475e+18,0.00024777650833129883,-0.004401807731483132,-0.003463508089851741
71,1.6666891543676984e+18,3.375113010406494e-05,-0.0043588483822532,-0.005991845644494065
72,1.6666891543719237e+18,-0.0003193318843841553,-0.0043327827006578445,-0.004871164227628011
73,1.6666891543764434e+18,-6.352365016937256e-05,-0.004404647974297404,-0.008184324463807124
74,1.666689154379767e+18,0.00014591217041015625,-0.004479141905903816,-0.006618487224586245
75,1.6666891543848092e+18,0.0001945197582244873,-0.004508664831519127,-0.004991077750585049
76,1.6666891543889446e+18,-2.4333596229553223e-05,-0.004489486454986036,-0.003192626734290549
77,1.666689154392799e+18,0.00018958747386932373,-0.004591089440509677,-0.004708369165149939
78,1.6666891543968545e+18,0.00014482438564300537,-0.004603487206622958,-0.0044624332322302784
79,1.6666891544012844e+18,0.00011943280696868896,-0.004623976768925786,-0.004715038497791202
80,1.6666891544055793e+18,0.0003769397735595703,-0.004942155152093619,4.485305830792541e-05
81,1.6666891544098757e+18,0.0006314963102340698,-0.0051681604236364365,0.0038957348095429722
82,1.6666891544137121e+18,0.0005206167697906494,-0.0049190036952495575,0.0006331999337090277
83,1.666689154417974e+18,0.000318184494972229,-0.004902949556708336,0.002097759364064977
84,1.666689154422146e+18,0.00023196637630462646,-0.004950417205691338,0.0031951323088872385
85,1.6666891544260667e+18,0.0009258538484573364,-0.0054327091202139854,0.010847051295029386
86,1.6666891544300265e+18,0.0009898543357849121,-0.00556204654276371,0.012037683891571449
87,1.6666891544348283e+18,0.0009038746356964111,-0.005478193983435631,0.010624169347164925
88,1.66668915443905e+18,0.0008788406848907471,-0.005488079972565174,0.010256749624899975
89,1.66668915444309e+18,0.0012198388576507568,-0.005629220511764288,0.0018836359460976393
90,1.666689154447165e+18,0.0011985749006271362,-0.00564595521427691,0.001624589708099089
91,1.6666891544514652e+18,0.000974014401435852,-0.005419800523668528,-0.002971881951771671
92,1.666689154455474e+18,0.0007974803447723389,-0.005353098269551992,-0.004094656547002584
93,1.6666891544598031e+18,0.0007560104131698608,-0.0053568086586892605,-0.0051117172319405935
94,1.6666891544636943e+18,0.000758633017539978,-0.005393218249082565,-0.004536313131418002
95,1.6666891544683044e+18,0.0007947832345962524,-0.0054610539227724075,-0.004392853218317949
96,1.6666891544724252e+18,0.0008280575275421143,-0.0055176494643092155,-0.003847103232451632
97,1.6666891544764664e+18,0.0008988529443740845,-0.005609868094325066,-0.0031897172826840237
98,1.6666891544798062e+18,0.0008990615606307983,-0.005649841856211424,-0.0029084669783250305
99,1.6666891544848906e+18,0.0008095651865005493,-0.005631919950246811,-0.0041466283394513415
100,1.6666891544888768e+18,-0.0002739429473876953,-0.005108060082420707,-0.012855108452518804
101,1.6666891544930017e+18,-0.00012746453285217285,-0.005129452678374946,-0.0157040966922406
102,1.6666891544969313e+18,-0.0001866668462753296,-0.00497735571116209,-0.01383489701474283
103,1.666689154501488e+18,0.0002330094575881958,-0.005256935488432646,-0.016225859434093604
104,1.6666891545054597e+18,0.0003755837678909302,-0.005459466832689941,-0.01269506936428444
105,1.6666891545098378e+18,-0.0003330111503601074,-0.0049194213934242725,-0.016181792241665605
106,1.666689154514014e+18,-0.000421866774559021,-0.005085323471575975,-0.01162656044988486
107,1.6666891545181064e+18,-0.00015516579151153564,-0.005399736110121012,-0.007079430144137477
108,1.6666891545222587e+18,0.0003651082515716553,-0.005655329674482346,-0.013768931246544991
109,1.6666891545263462e+18,-2.454221248626709e-05,-0.005790540832094848,-0.00349660235198046
110,1.666689154530705e+18,0.00033345818519592285,-0.005948618520051241,-0.009149540982336113
111,1.6666891545349018e+18,0.00034208595752716064,-0.006046184804290533,-0.008658180523392511
112,1.666689154539022e+18,0.00030550360679626465,-0.006085663568228483,-0.008219686911855595
113,1.6666891545435968e+18,0.00023412704467773438,-0.006050814175978303,-0.009850780431353678
114,1.6666891545471846e+18,-0.00012017786502838135,-0.006104077212512493,-0.001102468691263292
115,1.6666891545515126e+18,0.00022456049919128418,-0.006038619903847575,-0.011714694040888096
116,1.666689154555679e+18,-0.0011834800243377686,-0.0051414137706160545,-0.01981771800898513
117,1.6666891545599432e+18,-0.0017116665840148926,-0.005176344886422157,-0.017697589187575913
118,1.666689154564318e+18,-0.0016040802001953125,-0.005298064090311527,-0.01909453028798458
119,1.6666891545683556e+18,-0.0015985816717147827,-0.005548242479562759,-0.021886518680770406
120,1.6666891545722063e+18,-0.0017664581537246704,-0.005455325357615948,-0.021783605378313364
121,1.6666891545762268e+18,-0.0019351840019226074,-0.005391458980739117,-0.020607534229877267
122,1.666689154579939e+18,-0.0017701983451843262,-0.005530081689357758,-0.022587742904151664
123,1.6666891545844454e+18,-0.0018153190612792969,-0.005719339475035667,-0.02331721848652535
124,1.6666891545886477e+18,-0.0018758922815322876,-0.005674373358488083,-0.023042198909521527
125,1.6666891545927334e+18,-0.0017114877700805664,-0.0056611038744449615,-0.021630878222335115
126,1.6666891545967928e+18,-0.0017739832401275635,-0.005619808100163937,-0.021488442425189325
127,1.6666891546011126e+18,-0.0021363645792007446,-0.0056422408670187,-0.023037971759577447
128,1.6666891546054712e+18,-0.002248331904411316,-0.005360448732972145,-0.02313835663808006
129,1.6666891546098028e+18,-0.0023082345724105835,-0.005387242883443832,-0.02310560695574515
130,1.6666891546138486e+18,-0.0022825002670288086,-0.005400504916906357,-0.023261837155354126
131,1.6666891546180972e+18,-0.002352192997932434,-0.005547905340790749,-0.024700232057452753
132,1.6666891546221522e+18,-0.0023328810930252075,-0.005466936156153679,-0.023356784085959204
133,1.6666891546259123e+18,-0.0023624151945114136,-0.005408484488725662,-0.024619978146144028
134,1.6666891546299197e+18,-0.0028772056102752686,-0.005630470812320709,-0.022924552348103866
135,1.6666891546346066e+18,-0.0028277933597564697,-0.005790188908576965,-0.023388832461503917
136,1.6666891546388052e+18,-0.0029899626970291138,-0.0058060139417648315,-0.021736275197796084
137,1.666689154642888e+18,-0.0030471086502075195,-0.005905020982027054,-0.02085957046858633
138,1.6666891546477322e+18,-0.0030289441347122192,-0.005843477323651314,-0.022672183080847397
139,1.6666891546508664e+18,-0.0029960572719573975,-0.005744943395256996,-0.02445030022914052
140,1.6666891546555064e+18,-0.0030527710914611816,-0.005804076790809631,-0.02493308200732902
141,1.6666891546592922e+18,-0.0031353533267974854,-0.00584397092461586,-0.02374331822282838
142,1.66668915466333e+18,-0.003167957067489624,-0.00590251199901104,-0.02334373686712743
143,1.6666891546679636e+18,-0.003144979476928711,-0.005801837891340256,-0.02025677682309701
144,1.6666891546722173e+18,-0.0032042115926742554,-0.005818269215524197,-0.019311915900715793
145,1.666689154676299e+18,-0.00319574773311615,-0.005883028730750084,-0.019610893577738597
146,1.666689154680605e+18,-0.0031833797693252563,-0.0060619693249464035,-0.02160045840217073
147,1.6666891546843167e+18,-0.003192707896232605,-0.00611083023250103,-0.02278634923155831
148,1.6666891546888632e+18,-0.0032312721014022827,-0.005920391529798508,-0.02219433033469609
149,1.6666891546925463e+18,-0.0032298415899276733,-0.005890050902962685,-0.02191261756028906
150,1.6666891546968197e+18,-0.00329434871673584,-0.006095509976148605,-0.022476358485125747
151,1.66668915470142e+18,-0.0033058971166610718,-0.006186643615365028,-0.022282780492520526
152,1.6666891547052457e+18,-0.0033587664365768433,-0.0060752201825380325,-0.020002976076082035
153,1.6666891547095314e+18,-0.0034324973821640015,-0.006233174353837967,-0.01932366844724509
154,1.6666891547136284e+18,-0.0035961270332336426,-0.0063857403583824635,-0.017837447856539512
155,1.6666891547181097e+18,-0.0037315934896469116,-0.00639869412407279,-0.016614301858748792
156,1.6666891547216033e+18,-0.003888353705406189,-0.0063322619535028934,-0.01495544136413307
157,1.6666891547266376e+18,-0.003975719213485718,-0.00635791290551424,-0.014967372811210522
158,1.666689154730356e+18,-0.004005134105682373,-0.006360768340528011,-0.015625982332720056
159,1.6666891547342671e+18,-0.004048928618431091,-0.006333689205348492,-0.015142667069017568
160,1.6666891547387397e+18,-0.00407157838344574,-0.006390329683199525,-0.015478899563779569
161,1.666689154742823e+18,-0.004081323742866516,-0.006451691500842571,-0.015690877396298042
162,1.6666891547469453e+18,-0.004088237881660461,-0.00646761991083622,-0.015695162185264344
163,1.6666891547511606e+18,-0.004084721207618713,-0.00650781998410821,-0.01604667119750869
164,1.6666891547553085e+18,-0.004072457551956177,-0.006356989499181509,-0.014372312582946467
165,1.6666891547593462e+18,-0.0040680766105651855,-0.006342390552163124,-0.013239994866806049
166,1.666689154763822e+18,-0.004038512706756592,-0.006281537702307105,-0.014558579089940737
167,1.66668915476814e+18,-0.004033222794532776,-0.006353553384542465,-0.015566015200305205
168,1.6666891547722422e+18,-0.004087969660758972,-0.0064975363202393055,-0.01544092799246144
169,1.6666891547764813e+18,-0.004064232110977173,-0.006445378065109253,-0.017888016024262487
170,1.6666891547798717e+18,-0.0040892064571380615,-0.006496151210740209,-0.01862331227563563
171,1.6666891547843333e+18,-0.004301339387893677,-0.006844205781817436,-0.013851866655540723
172,1.666689154788413e+18,-0.004390805959701538,-0.006871291669085622,-0.011781068840433395
173,1.6666891547931384e+18,-0.004399970173835754,-0.0068122828379273415,-0.011017445845767915
174,1.6666891547972823e+18,-0.004430264234542847,-0.00687490776181221,-0.01186762783219053
175,1.6666891548017124e+18,-0.00437009334564209,-0.006791610270738602,-0.013677235345727956
176,1.6666891548060864e+18,-0.004445463418960571,-0.006916008656844497,-0.011444036328827512
177,1.6666891548095923e+18,-0.004511013627052307,-0.0069170568604022264,-0.011425378260662589
178,1.6666891548133926e+18,-0.004543513059616089,-0.006928223418071866,-0.011629333509822981
179,1.666689154817672e+18,-0.004572466015815735,-0.006944985128939152,-0.011923668852851232
180,1.6666891548217452e+18,-0.004607841372489929,-0.00698070926591754,-0.012051675756864721
181,1.6666891548259648e+18,-0.0046350955963134766,-0.0070203617215156555,-0.01199109085447958
182,1.6666891548297687e+18,-0.004669010639190674,-0.007032659370452166,-0.011775051042302698
183,1.6666891548343347e+18,-0.004696682095527649,-0.007055822527036071,-0.011834082953972924
184,1.6666891548388465e+18,-0.004728496074676514,-0.007167375646531582,-0.011387889241541549
185,1.6666891548431775e+18,-0.0047711580991744995,-0.007134754676371813,-0.011728841095034026
186,1.6666891548473605e+18,-0.00481000542640686,-0.007166614523157477,-0.011836960483189163
187,1.66668915485161e+18,-0.004845976829528809,-0.0072165667079389095,-0.011842020471753312
188,1.6666891548555681e+18,-0.004875734448432922,-0.007238122634589672,-0.011900804200037474
189,1.6666891548595412e+18,-0.004859060049057007,-0.007141227601096034,-0.0134521566900625
190,1.6666891548636367e+18,-0.004960238933563232,-0.007387102581560612,-0.012251118599161614
191,1.6666891548677038e+18,-0.00501289963722229,-0.007447436219081283,-0.011806562071764226
192,1.666689154871824e+18,-0.0050310492515563965,-0.007491916883736849,-0.011564468136592287
193,1.6666891548759508e+18,-0.0050668865442276,-0.0075307064689695835,-0.011419312487055633
194,1.6666891548799148e+18,-0.005092129111289978,-0.00756230647675693,-0.011818937240980487
195,1.6666891548845294e+18,-0.005131453275680542,-0.007582004647701979,-0.012079146557834042
196,1.666689154888931e+18,-0.005178973078727722,-0.007602458354085684,-0.01240018781885932
197,1.6666891548930877e+18,-0.005235433578491211,-0.007771050790324807,-0.012972034694818335
198,1.6666891548972347e+18,-0.005305394530296326,-0.007913456298410892,-0.012991661898381412
199,1.666689154901155e+18,-0.005353584885597229,-0.007894900627434254,-0.014048090264557889
200,1.666689154905468e+18,-0.005386665463447571,-0.007867189357057214,-0.01418449170240188
201,1.6666891549093565e+18,-0.005415409803390503,-0.007926095742732286,-0.014523446028128939
202,1.666689154913695e+18,-0.005445629358291626,-0.007964974269270897,-0.014797108203729481
203,1.6666891549181322e+18,-0.005470931529998779,-0.007994966581463814,-0.014905781775305327
204,1.666689154922024e+18,-0.0055109113454818726,-0.008030070923268795,-0.014963689673674674
205,1.6666891549265677e+18,-0.00554637610912323,-0.008061758242547512,-0.014985379158444445
206,1.666689154930414e+18,-0.005560711026191711,-0.008069154806435108,-0.014800665140482172
207,1.6666891549351736e+18,-0.005581885576248169,-0.008078187704086304,-0.014658194445125172
208,1.6666891549386808e+18,-0.005523756146430969,-0.007931176573038101,-0.016451040547722062
209,1.666689154942709e+18,-0.005617871880531311,-0.008016910403966904,-0.015437325196979712
210,1.6666891549469862e+18,-0.00567096471786499,-0.008019813802093267,-0.014514540850735003
211,1.6666891549509893e+18,-0.0056774914264678955,-0.008085431531071663,-0.013755592209758527
212,1.6666891549552195e+18,-0.005731359124183655,-0.008073317352682352,-0.01567666522579736
213,1.6666891549594486e+18,-0.005748763680458069,-0.008069184608757496,-0.0166560874640842
214,1.6666891549641508e+18,-0.005775392055511475,-0.008059050422161818,-0.01711744178904695
215,1.6666891549679926e+18,-0.0058058202266693115,-0.008125886786729097,-0.0167339280240979
