,time,x,y,theta
0,1.6705052005284396e+18,0.0001253262162208557,0.00021583586931228638,0.0019925931892876836
1,1.670505200532334e+18,0.0001374557614326477,0.00021012872457504272,0.0018084060465635154
2,1.6705052005363676e+18,0.00013859570026397705,0.00021078065037727356,0.0017545699096881417
3,1.6705052005406118e+18,0.00012886524200439453,0.00021552294492721558,0.0013268681458924458
4,1.6705052005450862e+18,0.00011879950761795044,0.00019368156790733337,0.0009030337985240777
5,1.67050520055044e+18,0.00010040402412414551,0.00016780942678451538,0.000541641390174874
6,1.670505200553424e+18,7.495284080505371e-05,0.00014182180166244507,0.0001779757945004068
7,1.6705052005575654e+18,4.5262277126312256e-05,0.00012176111340522766,-0.00030799270159187486
8,1.6705052005625795e+18,2.5503337383270264e-05,8.5391104221344e-05,-0.0006106474155762598
9,1.670505200566172e+18,6.191432476043701e-06,4.377588629722595e-05,-0.0009148960672575868
10,1.6705052005702564e+18,-2.958625555038452e-05,7.539987564086914e-06,-0.0011560712875122725
11,1.6705052005743245e+18,-5.786120891571045e-05,-3.758445382118225e-05,-0.0015823704560691265
12,1.6705052005778867e+18,-8.732825517654419e-05,-5.7756900787353516e-05,-0.0019392619185925053
13,1.6705052005826693e+18,-0.00011307001113891602,-8.693709969520569e-05,-0.002367134036269203
14,1.6705052005867674e+18,-0.0001413598656654358,-0.00011333450675010681,-0.0026093830829989617
15,1.6705052005907566e+18,-0.00017214566469192505,-0.0001378096640110016,-0.003092799969131921
16,1.6705052005948544e+18,-0.00018853694200515747,-0.00016775727272033691,-0.003575128459862409
17,1.670505200599718e+18,-0.00020688772201538086,-0.00018447265028953552,-0.003875268314661451
18,1.6705052006034588e+18,-0.0002149641513824463,-0.00020535290241241455,-0.004303035883456374
19,1.6705052006074511e+18,-0.00022558122873306274,-0.00023417547345161438,-0.004729639319985823
20,1.6705052006129052e+18,-0.00022645294666290283,-0.0002619549632072449,-0.005095776570274824
21,1.6705052006154035e+18,-0.0002274736762046814,-0.000287473201751709,-0.004966329158224703
22,1.67050520062012e+18,-0.00021802634000778198,-0.0003144592046737671,-0.005271239271162909
23,1.6705052006240335e+18,-0.00021017342805862427,-0.00033446401357650757,-0.005394017938183726
24,1.6705052006286264e+18,-0.00019662082195281982,-0.00035336241126060486,-0.005390623670675776
25,1.6705052006326633e+18,-0.00018052756786346436,-0.00037807226181030273,-0.005390863845528893
26,1.6705052006364795e+18,-0.00015876442193984985,-0.0003947913646697998,-0.0053910779068080394
27,1.6705052006407782e+18,-0.00013860315084457397,-0.00039504095911979675,-0.005448491160518376
28,1.6705052006448888e+18,-0.00011507421731948853,-0.0004089847207069397,-0.005507594186793252
29,1.670505200649019e+18,-0.00010017305612564087,-0.00041412562131881714,-0.00551005647958136
30,1.6705052006531361e+18,-7.345527410507202e-05,-0.00042107701301574707,-0.005812330195826387
31,1.6705052006578793e+18,-4.3019652366638184e-05,-0.00042907148599624634,-0.005811325477798945
32,1.6705052006614994e+18,-8.203089237213135e-06,-0.00042243674397468567,-0.005807428497329958
33,1.6705052006650248e+18,1.6786158084869385e-05,-0.0004199184477329254,-0.006113262032235944
34,1.6705052006699566e+18,5.335360765457153e-05,-0.00041733309626579285,-0.006178453828112218
35,1.6705052006751593e+18,7.436424493789673e-05,-0.00041081011295318604,-0.006542446962947146
36,1.6705052006781412e+18,9.854882955551147e-05,-0.0003939680755138397,-0.006417631037234139
37,1.6705052006824026e+18,0.00012984871864318848,-0.00038750097155570984,-0.006663533634821972
38,1.670505200690566e+18,0.00015380233526229858,-0.00038158148527145386,-0.006846784100419168
39,1.6705052006906153e+18,0.00018142908811569214,-0.0003605075180530548,-0.0067225865704900745
40,1.6705052006952381e+18,0.0001925826072692871,-0.00033884868025779724,-0.006725461527326226
41,1.6705052006990461e+18,0.00019497424364089966,-0.0003143996000289917,-0.006783961954254458
42,1.6705052007038633e+18,0.00019037723541259766,-0.0002991333603858948,-0.006784899751188567
43,1.6705052007075804e+18,0.00018649548292160034,-0.00028050318360328674,-0.007026311203392366
44,1.6705052007117373e+18,0.00017420202493667603,-0.00025911256670951843,-0.007151452041204598
45,1.670505200715526e+18,0.00016310065984725952,-0.000247761607170105,-0.007145432189406886
46,1.670505200720846e+18,0.00014559924602508545,-0.0002271905541419983,-0.007326253139005479
47,1.6705052007240532e+18,0.00012113898992538452,-0.00020007789134979248,-0.007442344327752037
48,1.6705052007282852e+18,0.00010204315185546875,-0.00015154853463172913,-0.007186657455891199
49,1.670505200732111e+18,5.9001147747039795e-05,8.87364149093628e-06,-0.006946078626383079
50,1.6705052007372244e+18,4.7676265239715576e-05,6.135553121566772e-05,-0.006754582588508029
51,1.6705052007408988e+18,2.6591122150421143e-05,9.270012378692627e-05,-0.006436429789884901
52,1.6705052007453181e+18,5.859881639480591e-05,9.096413850784302e-05,-0.005823884821646752
53,1.6705052007489902e+18,4.7773122787475586e-05,0.00010151416063308716,-0.005701121009316523
54,1.6705052007534538e+18,-7.294118404388428e-06,9.897351264953613e-05,-0.006681494002128696
55,1.6705052007571794e+18,-2.4430453777313232e-05,8.421763777732849e-05,-0.006678751811939998
56,1.670505200761481e+18,-2.9198825359344482e-05,9.072571992874146e-05,-0.006861848294811956
57,1.6705052007659976e+18,1.6920268535614014e-05,0.00022537633776664734,-0.004318971300384611
58,1.670505200769574e+18,-1.7434358596801758e-06,0.00022744014859199524,-0.004533707297244449
59,1.6705052007740444e+18,1.1049211025238037e-05,0.0002210773527622223,-0.004728071282856128
60,1.6705052007783086e+18,-5.714595317840576e-06,0.00018389523029327393,-0.005746115369950955
61,1.670505200783501e+18,-1.16005539894104e-05,9.970366954803467e-05,-0.006302702226678836
62,1.6705052007864195e+18,6.7427754402160645e-06,0.000396091490983963,-0.0016007890436122718
63,1.6705052007907914e+18,-1.5750527381896973e-05,0.00017817318439483643,-0.0055239738931067706
64,1.6705052007948664e+18,-1.4156103134155273e-07,0.00019615516066551208,-0.006616024943561616
65,1.6705052007994068e+18,2.2627413272857666e-05,0.00019697099924087524,-0.005940524815458925
66,1.6705052008034138e+18,4.5418739318847656e-05,0.00020252913236618042,-0.004304951833719928
67,1.67050520080755e+18,0.00011947751045227051,0.0005121566355228424,-0.001446460918111514
68,1.6705052008115978e+18,0.0001150667667388916,0.00022322311997413635,-0.005358687106796767
69,1.6705052008159027e+18,0.0001333877444267273,0.0005866847932338715,-0.00028525806545909305
70,1.6705052008200284e+18,0.00019852817058563232,0.000409495085477829,-0.0020074969775019103
71,1.6705052008242545e+18,0.0002195984125137329,0.00031325221061706543,-0.004174856492970669
72,1.6705052008287101e+18,0.0002119317650794983,0.0005084387958049774,-0.0011818733355026811
73,1.670505200832279e+18,0.0002250969409942627,0.0006106831133365631,-0.0006760706164621322
74,1.6705052008366625e+18,0.0002928301692008972,0.0005467087030410767,-0.002327629454200064
75,1.6705052008409247e+18,0.0003238096833229065,0.0005849897861480713,-0.00238719128938647
76,1.6705052008452677e+18,0.0003831535577774048,0.0006415881216526031,-0.003299219602753034
77,1.6705052008488727e+18,0.0004626661539077759,0.0006364509463310242,-0.0039725210053056514
78,1.6705052008532797e+18,0.0005315393209457397,0.0006213076412677765,-0.004399907800737735
79,1.6705052008573053e+18,0.0006288811564445496,0.0006081648170948029,-0.0058049829410089515
80,1.6705052008616896e+18,0.0007973909378051758,0.00061773881316185,-0.00695508448858817
81,1.6705052008649546e+18,0.0009204372763633728,0.0006236061453819275,-0.006160527387383041
82,1.6705052008700792e+18,0.0010540708899497986,0.0006720535457134247,-0.007989579298854244
83,1.6705052008747773e+18,0.0011460483074188232,0.0006643421947956085,-0.00848457779413736
84,1.6705052008780529e+18,0.0012323036789894104,0.0006657317280769348,-0.010471839872465472
85,1.670505200882195e+18,0.0014177262783050537,0.00041484832763671875,-0.011614150933534573
86,1.6705052008863094e+18,0.0015211254358291626,0.000624481588602066,-0.011065192655201894
87,1.6705052008912596e+18,0.0016523078083992004,0.0008038021624088287,-0.011240791286759144
88,1.6705052008951142e+18,0.00173138827085495,0.0007818378508090973,-0.012193036166908477
89,1.670505200899363e+18,0.0019276440143585205,0.0010142326354980469,-0.00994797951924542
90,1.6705052009031672e+18,0.0021381303668022156,0.0013176016509532928,-0.009342014002784893
91,1.6705052009079101e+18,0.002283811569213867,0.0013792142271995544,-0.010212154253602002
92,1.6705052009118543e+18,0.0026312917470932007,0.001244429498910904,-0.009036366969168208
93,1.6705052009156324e+18,0.002945415675640106,0.0014518946409225464,-0.00899935521812667
94,1.6705052009209795e+18,0.0033235102891921997,0.0014635883271694183,-0.00654696470025895
95,1.670505200924336e+18,0.003631316125392914,0.0015698820352554321,-0.006917046604741683
96,1.670505200928654e+18,0.004043564200401306,0.001637883484363556,-0.00697333199216299
97,1.670505200932227e+18,0.0044924914836883545,0.0018364936113357544,-0.0018950037371499029
98,1.6705052009371763e+18,0.0047618672251701355,0.0019359216094017029,0.001675249678194879
99,1.6705052009410112e+18,0.005153961479663849,0.001975730061531067,-0.000728979082329273
100,1.670505200944966e+18,0.005688853561878204,0.001988843083381653,0.0025744394887958766
101,1.670505200949049e+18,0.006268620491027832,0.0019765235483646393,-0.0002449895194773788
102,1.670505200953529e+18,0.007172539830207825,0.002122107893228531,0.002247053530461285
103,1.6705052009574822e+18,0.007920578122138977,0.0022579245269298553,0.006563345626414474
104,1.6705052009615782e+18,0.008536674082279205,0.0024369731545448303,0.005108780005133928
105,1.6705052009661212e+18,0.009144611656665802,0.0025123432278633118,0.008144132414275473
106,1.6705052009697692e+18,0.009771838784217834,0.002659004181623459,0.010530742390246983
107,1.6705052009741263e+18,0.010540597140789032,0.002683151513338089,0.01206449733210535
108,1.6705052009781775e+18,0.011388160288333893,0.0026343800127506256,0.01584671993342157
109,1.6705052009830397e+18,0.012260377407073975,0.002596106380224228,0.016268475389328962
110,1.6705052009866463e+18,0.013263404369354248,0.002410728484392166,0.020403152931415036
111,1.6705052009909117e+18,0.014412552118301392,0.0022545456886291504,0.024266357254955073
112,1.6705052009947272e+18,0.015448801219463348,0.0023055337369441986,0.03174354857570849
113,1.6705052009990077e+18,0.0163576677441597,0.0025061555206775665,0.03296519248326857
114,1.6705052010034926e+18,0.017256177961826324,0.002630997449159622,0.03526510903425395
115,1.6705052010074412e+18,0.017946496605873108,0.002722010016441345,0.036439866786006636
116,1.6705052010125553e+18,0.01865476369857788,0.0028659291565418243,0.03926448481293465
117,1.670505201015084e+18,0.019655033946037292,0.003076266497373581,0.0422296068570982
118,1.670505201020097e+18,0.020559780299663544,0.0032691918313503265,0.044721888480316
119,1.6705052010241367e+18,0.021483950316905975,0.0033533908426761627,0.048028978012577106
120,1.670505201029146e+18,0.02254028618335724,0.0034733787178993225,0.051024843518001406
121,1.6705052010324454e+18,0.023691438138484955,0.003425266593694687,0.055535609058495305
122,1.6705052010367987e+18,0.02487209439277649,0.003413058817386627,0.06025384340748019
123,1.6705052010409723e+18,0.02607543021440506,0.0034780353307724,0.0629668162059629
124,1.6705052010452134e+18,0.027240604162216187,0.0035922639071941376,0.06767785334607668
125,1.670505201049411e+18,0.02861686795949936,0.0035244449973106384,0.07238663400809164
126,1.670505201053622e+18,0.030006885528564453,0.0035844482481479645,0.07691680600647999
127,1.6705052010578194e+18,0.031446680426597595,0.003472529351711273,0.08649467140181688
128,1.6705052010622963e+18,0.03241037577390671,0.0036905482411384583,0.08734912016630036
129,1.6705052010654423e+18,0.033816128969192505,0.0038711391389369965,0.0910205132133235
130,1.670505201069957e+18,0.03499589115381241,0.003982704132795334,0.09466825861533246
131,1.6705052010751299e+18,0.03584694117307663,0.004290394484996796,0.09471890912594172
132,1.6705052010779786e+18,0.03695865720510483,0.0044862814247608185,0.09681145672432101
133,1.6705052010824077e+18,0.03821161389350891,0.00462278351187706,0.10117161610427328
134,1.6705052010866947e+18,0.03963259607553482,0.004677332937717438,0.1062791798073155
135,1.6705052010912579e+18,0.04095391929149628,0.004843529313802719,0.10932094280807525
136,1.6705052010941688e+18,0.042342521250247955,0.005060561001300812,0.11462701825492583
137,1.6705052010995574e+18,0.04378248006105423,0.0050750188529491425,0.12052686450614525
138,1.6705052011034486e+18,0.045072801411151886,0.005223214626312256,0.12456540829353102
139,1.6705052011078034e+18,0.04646766185760498,0.005351714789867401,0.13061323172148298
140,1.670505201111944e+18,0.04779543727636337,0.005445998162031174,0.13519278847158445
141,1.6705052011157645e+18,0.049073152244091034,0.005610030144453049,0.13933841452147866
142,1.6705052011212006e+18,0.05052102357149124,0.005749646574258804,0.143359139718914
143,1.6705052011241234e+18,0.052099891006946564,0.0057816095650196075,0.1505156907788736
144,1.6705052011284813e+18,0.05348312109708786,0.005892712622880936,0.15585888886659993
145,1.67050520113239e+18,0.05486815422773361,0.006089109927415848,0.1598905891360647
146,1.6705052011406525e+18,0.056239791214466095,0.006184220314025879,0.16415301089220136
147,1.6705052011407127e+18,0.057834722101688385,0.00629827007651329,0.17061452479657624
148,1.6705052011452237e+18,0.059252239763736725,0.006399448961019516,0.1742988107349004
149,1.670505201149042e+18,0.06060212105512619,0.006541211158037186,0.1802177482534295
150,1.670505201152944e+18,0.062101103365421295,0.006622534245252609,0.18659064986016238
151,1.6705052011574835e+18,0.06370022147893906,0.0067041777074337006,0.1943385073731645
152,1.6705052011619515e+18,0.06525353342294693,0.006850056350231171,0.20125679752316028
153,1.6705052011667738e+18,0.06674730032682419,0.006986871361732483,0.2074208303346181
154,1.6705052011710126e+18,0.06811130791902542,0.007147058844566345,0.21076547666660717
155,1.670505201173769e+18,0.06976663321256638,0.007101383060216904,0.21926050220165716
156,1.6705052011777787e+18,0.07122316211462021,0.007112566381692886,0.2258211747838097
157,1.6705052011826954e+18,0.07271140068769455,0.007222156971693039,0.230929258955213
158,1.6705052011864968e+18,0.07412973791360855,0.007271111011505127,0.23599784178990135
159,1.6705052011910692e+18,0.075724296271801,0.0075284503400325775,0.2412994260600445
160,1.6705052011947377e+18,0.07718005031347275,0.0076950229704380035,0.24622336537115452
161,1.6705052011988367e+18,0.07847026735544205,0.007914591580629349,0.24769868551676533
162,1.670505201203162e+18,0.08024176210165024,0.007910128682851791,0.2582296903378869
163,1.67050520120716e+18,0.08182770758867264,0.007921632379293442,0.2640421292834394
164,1.6705052012127452e+18,0.08313555270433426,0.008056778460741043,0.26835115823716427
165,1.670505201215692e+18,0.08471361547708511,0.008108068257570267,0.27411306736522767
166,1.6705052012200576e+18,0.08618626743555069,0.008298400789499283,0.2781237652485373
167,1.6705052012241687e+18,0.08730817586183548,0.008539825677871704,0.275855784609333
168,1.6705052012280694e+18,0.0891696885228157,0.008610446006059647,0.28730528720594894
169,1.670505201232207e+18,0.0907844826579094,0.008584447205066681,0.29488638652712673
170,1.6705052012364946e+18,0.09234259277582169,0.008662689477205276,0.2990381351046334
171,1.6705052012404385e+18,0.09369362145662308,0.008892614394426346,0.30330081959700594
172,1.6705052012450688e+18,0.09510362893342972,0.00901694968342781,0.30811993431397
173,1.6705052012494505e+18,0.09664776176214218,0.009056385606527328,0.3167477857602563
174,1.67050520125376e+18,0.09842225164175034,0.00903945043683052,0.32636167389166126
175,1.670505201257364e+18,0.09994091838598251,0.009163018316030502,0.33219462577537495
176,1.670505201261612e+18,0.1014857217669487,0.009416088461875916,0.3337479965254151
177,1.6705052012655654e+18,0.10347095876932144,0.009308528155088425,0.3462596977675101
178,1.6705052012700221e+18,0.10513859242200851,0.00923384353518486,0.35160495337824216
179,1.6705052012755387e+18,0.10628082603216171,0.00958937406539917,0.35445250484599455
180,1.6705052012781325e+18,0.10801396518945694,0.009594257920980453,0.3635207513901646
181,1.6705052012828746e+18,0.10959997028112411,0.009599905461072922,0.3684553343370667
182,1.6705052012866637e+18,0.11085132509469986,0.009838875383138657,0.37109346570078716
183,1.670505201290525e+18,0.11264649778604507,0.009913545101881027,0.37798149083394095
184,1.670505201294787e+18,0.11388879269361496,0.009899672120809555,0.3807896049026265
185,1.6705052012990298e+18,0.11538095027208328,0.009965252131223679,0.3872531946574711
186,1.6705052013039183e+18,0.11687358468770981,0.010005202144384384,0.3928170175152095
187,1.670505201307275e+18,0.11805468052625656,0.010164346545934677,0.3923289313905707
188,1.6705052013118147e+18,0.11995486170053482,0.010169614106416702,0.40178181503982313
189,1.6705052013159913e+18,0.12151626497507095,0.010227899998426437,0.40477949269341607
190,1.6705052013197276e+18,0.12331239134073257,0.010234523564577103,0.41425977900082445
191,1.6705052013238728e+18,0.12439282983541489,0.010333750396966934,0.4153467720748505
192,1.670505201327895e+18,0.1261473372578621,0.01023319736123085,0.4240312817945162
193,1.6705052013323884e+18,0.12749581784009933,0.010281894356012344,0.42571362184747286
194,1.6705052013362184e+18,0.12875118106603622,0.010490458458662033,0.4331900252672811
195,1.670505201341504e+18,0.1305617019534111,0.010521981865167618,0.436566336506677
196,1.670505201345662e+18,0.13218309730291367,0.010570522397756577,0.4427771681698418
197,1.6705052013486323e+18,0.1333727017045021,0.010621804744005203,0.44356698361199265
198,1.6705052013531415e+18,0.13520383089780807,0.010603096336126328,0.45166419446190775
199,1.6705052013570063e+18,0.13667520135641098,0.010627206414937973,0.45684511282658424
200,1.6705052013613007e+18,0.13816376775503159,0.010651323944330215,0.4612210691233358
201,1.6705052013664276e+18,0.1397574469447136,0.010532695800065994,0.46817357603013465
202,1.67050520137013e+18,0.14103149622678757,0.010532844811677933,0.4728401537421518
203,1.670505201374205e+18,0.14242904633283615,0.010633181780576706,0.4740975718819709
204,1.6705052013782108e+18,0.14438802748918533,0.010403331369161606,0.4794750400403849
205,1.6705052013822956e+18,0.1455492004752159,0.010684002190828323,0.48533617592455625
206,1.6705052013861883e+18,0.147129587829113,0.010589513927698135,0.4914346891913983
207,1.670505201390526e+18,0.14883064478635788,0.010494928807020187,0.49704690128383544
208,1.6705052013957921e+18,0.15040209144353867,0.010446283966302872,0.5037519816017053
209,1.6705052013990666e+18,0.1520308032631874,0.010461200028657913,0.5082076582202919
210,1.6705052014033618e+18,0.1533835157752037,0.010561052709817886,0.5124337563135197
211,1.6705052014072916e+18,0.15480374544858932,0.010608512908220291,0.5159062423131211
212,1.6705052014113265e+18,0.15629784017801285,0.010708663612604141,0.518795482261815
213,1.670505201415355e+18,0.15773292630910873,0.010659176856279373,0.5255396112194493
214,1.670505201419632e+18,0.1596958413720131,0.010536666959524155,0.5321751215072295
215,1.6705052014239063e+18,0.16121482104063034,0.010644648224115372,0.5341872546147142
216,1.6705052014283377e+18,0.16262426227331161,0.010524328798055649,0.5412941097556729
217,1.6705052014325036e+18,0.16411616653203964,0.010640662163496017,0.5416597034877599
218,1.6705052014364475e+18,0.1654559150338173,0.010597627609968185,0.5447434217143774
219,1.6705052014414346e+18,0.16674049943685532,0.010553736239671707,0.5526847713230463
220,1.670505201445302e+18,0.16837621480226517,0.01060451939702034,0.5548294770539706
