,time,x,y,theta
0,1.6705026724840282e+18,-0.0002303197979927063,-0.0005112034268677235,0.0009206928343603593
1,1.6705026724891315e+18,-0.00025103241205215454,-0.0005440241657197475,0.0009158024584328128
2,1.6705026724925033e+18,-0.000262238085269928,-0.0005839169025421143,0.0009760865084462722
3,1.6705026724964897e+18,-0.0002849772572517395,-0.0006258562207221985,0.001160337163355285
4,1.6705026725010555e+18,-0.0002992600202560425,-0.0006736959330737591,0.0013451834883260183
5,1.6705026725049905e+18,-0.0002810657024383545,-0.0007228325121104717,0.0018392144975827307
6,1.670502672508799e+18,-0.0002709031105041504,-0.0007713306695222855,0.00226864337621957
7,1.6705026725132506e+18,-0.00028029829263687134,-0.0008294680155813694,0.002573600073517257
8,1.6705026725179858e+18,-0.0002671554684638977,-0.0008794269524514675,0.002940687132983344
9,1.6705026725207355e+18,-0.0002619326114654541,-0.0009308666922152042,0.0031213902077618094
10,1.6705026725258255e+18,-0.00026654452085494995,-0.0009809769690036774,0.0033080993384375645
11,1.670502672528914e+18,-0.0002940073609352112,-0.0010320967994630337,0.0033677301007672966
12,1.6705026725336635e+18,-0.00031260401010513306,-0.0010656756348907948,0.0034342931126190024
13,1.670502672538125e+18,-0.0003436729311943054,-0.0011160974390804768,0.00362073028509613
14,1.670502672542353e+18,-0.00036260485649108887,-0.0011490248143672943,0.003438346608307441
15,1.6705026725468613e+18,-0.000376679003238678,-0.001189522910863161,0.0034374822100589064
16,1.670502672550763e+18,-0.0004056990146636963,-0.0012438423000276089,0.0035002968803032886
17,1.670502672554734e+18,-0.000425092875957489,-0.0012819659896194935,0.0034997993465517574
18,1.6705026725591255e+18,-0.0004578307271003723,-0.001319149974733591,0.003622727308720819
19,1.6705026725639017e+18,-0.00048404932022094727,-0.0013574282638728619,0.0035639946538350564
20,1.6705026725672102e+18,-0.00047963112592697144,-0.0013957535848021507,0.003501249796481476
21,1.670502672571266e+18,-0.0004918873310089111,-0.0014479923993349075,0.003501942978301198
22,1.6705026725754435e+18,-0.0005056783556938171,-0.0014977050013840199,0.0036257105895893815
23,1.6705026725795686e+18,-0.0004988163709640503,-0.0015573934651911259,0.003744122890660506
24,1.6705026725838577e+18,-0.0005054101347923279,-0.0016172188334167004,0.0038063739838152255
25,1.6705026725884004e+18,-0.0005154535174369812,-0.001664097886532545,0.003867990997525661
26,1.6705026725928604e+18,-0.0005199089646339417,-0.0017207060009241104,0.004050295755394728
27,1.670502672596742e+18,-0.0005182325839996338,-0.0017812722362577915,0.004294297121077761
28,1.6705026726003802e+18,-0.000535331666469574,-0.0018330467864871025,0.003932417215216866
29,1.670502672606501e+18,-0.0005663111805915833,-0.0018665934912860394,0.0036906184937872677
30,1.6705026726090808e+18,-0.0006133690476417542,-0.0019010631367564201,0.003508683561841419
31,1.6705026726132984e+18,-0.0006543472409248352,-0.0019504199735820293,0.003450561404364949
32,1.6705026726177277e+18,-0.000683218240737915,-0.0019909865222871304,0.0032059705205282896
33,1.6705026726211894e+18,-0.0006956085562705994,-0.002040648367255926,0.003206476110375167
34,1.6705026726257116e+18,-0.0007089823484420776,-0.0020866799168288708,0.003267996626729719
35,1.6705026726306435e+18,-0.0007273778319358826,-0.002094576135277748,0.0035104168428425897
36,1.6705026726339077e+18,-0.0007691234350204468,-0.0020793327130377293,0.003523164495808473
37,1.670502672638165e+18,-0.0007763504981994629,-0.002113805618137121,0.0038278072243072003
38,1.67050267264198e+18,-0.0007978826761245728,-0.0021601328626275063,0.003884661352643759
39,1.6705026726460406e+18,-0.000809989869594574,-0.002214409876614809,0.003945537230596985
40,1.670502672650156e+18,-0.0008183568716049194,-0.0022600670345127583,0.0038850748607581753
41,1.6705026726554424e+18,-0.0008381381630897522,-0.002344671171158552,0.004182134233389645
42,1.6705026726590543e+18,-0.0008483380079269409,-0.0024085422046482563,0.004487658240736936
43,1.6705026726634312e+18,-0.0008690357208251953,-0.0024499003775417805,0.00449173475997755
44,1.670502672666748e+18,-0.0008874014019966125,-0.0024898601695895195,0.004492069095186402
45,1.6705026726712586e+18,-0.0009008869528770447,-0.0025382954627275467,0.004491659925855984
46,1.6705026726756424e+18,-0.0009170249104499817,-0.002577597741037607,0.004306922662923096
47,1.6705026726796961e+18,-0.0009351447224617004,-0.00262197433039546,0.004243825727893835
48,1.6705026726838502e+18,-0.0009451583027839661,-0.002670539077371359,0.004241884132767604
49,1.6705026726883305e+18,-0.0009509623050689697,-0.002754555083811283,0.003813106595009108
50,1.6705026726922074e+18,-0.0009629875421524048,-0.0028124144300818443,0.003993084672082148
51,1.670502672696482e+18,-0.0009888559579849243,-0.002863634843379259,0.003928723775489473
52,1.6705026727013128e+18,-0.0009504109621047974,-0.0028994292952120304,0.0036160675495919836
53,1.6705026727047055e+18,-0.0009240508079528809,-0.0029435819014906883,0.0035459596387612535
54,1.6705026727089042e+18,-0.000970892608165741,-0.0030248970724642277,0.002515825536546723
55,1.6705026727125658e+18,-0.0009486451745033264,-0.002985397819429636,0.0008975984596422126
56,1.6705026727173322e+18,-0.0008364766836166382,-0.003079234156757593,0.0009701117650036117
57,1.6705026727208044e+18,-0.0007759630680084229,-0.0031262682750821114,0.0008457391459051333
58,1.6705026727256712e+18,-0.0009130164980888367,-0.003026376012712717,-0.00017011467531924396
59,1.670502672729469e+18,-0.00098399817943573,-0.0032884166575968266,0.003013929902467183
60,1.6705026727342098e+18,-0.0009528100490570068,-0.0034235469065606594,0.004670906110664452
61,1.6705026727380557e+18,-0.0009301528334617615,-0.0034969719126820564,0.004929595589993063
62,1.6705026727422152e+18,-0.000698484480381012,-0.003575448878109455,0.004898330735389145
63,1.670502672747163e+18,-0.0006080716848373413,-0.003691494930535555,0.006377588462378014
64,1.670502672750676e+18,-0.0006682127714157104,-0.003772823605686426,0.006727706537905442
65,1.670502672754668e+18,-0.0006512999534606934,-0.0038195843808352947,0.0062488448045954215
66,1.6705026727587853e+18,-0.0006698817014694214,-0.0038413223810493946,0.006188776181867528
67,1.6705026727635177e+18,-0.0007255598902702332,-0.003950063604861498,0.007033507665983096
68,1.670502672766935e+18,-0.0007564350962638855,-0.003999596461653709,0.006567678412251476
69,1.67050267277167e+18,-0.00068703293800354,-0.004000381799414754,0.006396504320131058
70,1.6705026727752993e+18,-0.0007496252655982971,-0.004105864325538278,0.007020158871227977
71,1.670502672779709e+18,-0.0009180307388305664,-0.004067625151947141,0.005470575715278647
72,1.6705026727840786e+18,-0.0009505301713943481,-0.004144766833633184,0.00504879166650718
73,1.6705026727880428e+18,-0.0009385049343109131,-0.0041739793960005045,0.005357692522533153
74,1.6705026727923704e+18,-0.0008550211787223816,-0.004252112470567226,0.00714527529285558
75,1.6705026727967442e+18,-0.0008314028382301331,-0.004362341249361634,0.00705204840063578
76,1.6705026728007322e+18,-0.0008097290992736816,-0.004416640615090728,0.007238118516597725
77,1.670502672804818e+18,-0.0007799714803695679,-0.004492686130106449,0.007967741899469694
78,1.6705026728096005e+18,-0.0008029118180274963,-0.004503191215917468,0.006916249475414915
79,1.6705026728131564e+18,-0.0010621696710586548,-0.004278958309441805,0.0034358406743009162
80,1.6705026728175122e+18,-0.0012061595916748047,-0.004261162597686052,0.0011818979489492953
81,1.6705026728211843e+18,-0.0012746304273605347,-0.004355881828814745,0.004168577686675334
82,1.6705026728262684e+18,-0.0012709647417068481,-0.004431345732882619,0.007395810155130356
83,1.6705026728299192e+18,-0.0013050585985183716,-0.004489278653636575,0.007779771844544703
84,1.6705026728342172e+18,-0.0013585463166236877,-0.004588952986523509,0.007947614605849251
85,1.6705026728379103e+18,-0.0013240575790405273,-0.004638656508177519,0.00944433677466261
86,1.6705026728428516e+18,-0.001331135630607605,-0.004655720666050911,0.010622700591758738
87,1.6705026728470295e+18,-0.0014218240976333618,-0.004756886977702379,0.010048741153640073
88,1.6705026728505518e+18,-0.0015597715973854065,-0.0047678949777036905,0.010743470636081831
89,1.6705026728555446e+18,-0.0016223341226577759,-0.004754945868626237,0.012107981771610099
90,1.6705026728591073e+18,-0.0018515139818191528,-0.004758995957672596,0.013981129477756538
91,1.6705026728634634e+18,-0.001967407763004303,-0.004820990609005094,0.01474215767741427
92,1.6705026728665715e+18,-0.0016487613320350647,-0.0051008607260882854,0.01471552123456199
93,1.6705026728722565e+18,-0.0017657727003097534,-0.0051811200100928545,0.01201631087094035
94,1.6705026728756247e+18,-0.002232678234577179,-0.004941555438563228,0.01760005907750739
95,1.670502672879337e+18,-0.002658449113368988,-0.004682845901697874,0.0206992347931394
96,1.6705026728839135e+18,-0.002981133759021759,-0.0046095047146081924,0.01934224930673989
97,1.670502672888565e+18,-0.0032880231738090515,-0.004557354608550668,0.01958538309891189
98,1.670502672892568e+18,-0.0036004409193992615,-0.004520647693425417,0.021602556986747512
99,1.6705026728963566e+18,-0.0038128867745399475,-0.004674495663493872,0.023925624042225646
100,1.670502672900948e+18,-0.0038567110896110535,-0.004727847874164581,0.027868253252965713
101,1.670502672904685e+18,-0.003940209746360779,-0.004744712729007006,0.031976410453187665
102,1.6705026729093222e+18,-0.004052966833114624,-0.004881903063505888,0.035713941654266
103,1.6705026729132603e+18,-0.004248075187206268,-0.005033324006944895,0.034954298374739956
104,1.6705026729180273e+18,-0.005131661891937256,-0.004458434879779816,0.02894405734431338
105,1.6705026729212096e+18,-0.005593739449977875,-0.004341629566624761,0.0308325406728589
106,1.6705026729264282e+18,-0.0061318278312683105,-0.004274753853678703,0.03598167566082955
107,1.6705026729298593e+18,-0.006406404078006744,-0.004140765406191349,0.03817534887202845
108,1.6705026729343002e+18,-0.006651207804679871,-0.004118622047826648,0.03807616816464976
109,1.67050267293845e+18,-0.006924465298652649,-0.0041810814291238785,0.03954224170995757
110,1.6705026729421194e+18,-0.007210046052932739,-0.004142015241086483,0.040912352550180664
111,1.6705026729476654e+18,-0.007564224302768707,-0.004123171558603644,0.04191641154541004
112,1.6705026729503923e+18,-0.007957279682159424,-0.004157476359978318,0.04407440358637915
113,1.6705026729549635e+18,-0.008235998451709747,-0.004171186359599233,0.044471201417251915
114,1.670502672958921e+18,-0.00845193862915039,-0.004261585418134928,0.04139098319677781
115,1.6705026729638403e+18,-0.008713074028491974,-0.004269682103767991,0.041258292485775394
116,1.6705026729672102e+18,-0.009119600057601929,-0.004132926696911454,0.04547111312962149
117,1.6705026729715267e+18,-0.009554959833621979,-0.0042737319599837065,0.04803601056012785
118,1.6705026729754445e+18,-0.009911485016345978,-0.004379901336506009,0.04705411540272553
119,1.6705026729799468e+18,-0.010181792080402374,-0.004436862654983997,0.04432997318735321
120,1.67050267298409e+18,-0.010345548391342163,-0.004377692937850952,0.04062458382905709
121,1.6705026729880886e+18,-0.010464027523994446,-0.004473760258406401,0.03680788115330502
122,1.6705026729919708e+18,-0.010985925793647766,-0.004458840005099773,0.04168337485054163
123,1.6705026729961736e+18,-0.01151883602142334,-0.004366673994809389,0.046473448703893805
124,1.6705026730003162e+18,-0.012024439871311188,-0.004369222326204181,0.04887160733584728
125,1.6705026730047155e+18,-0.012264817953109741,-0.004464400000870228,0.04681770721964762
126,1.6705026730089833e+18,-0.012547589838504791,-0.004481923766434193,0.04466643272272308
127,1.6705026730132183e+18,-0.012840405106544495,-0.004550815559923649,0.04581752478407397
128,1.6705026730173806e+18,-0.013121731579303741,-0.004536841996014118,0.045918983846736205
129,1.6705026730210455e+18,-0.013217568397521973,-0.004766363650560379,0.04655431098205387
130,1.670502673025402e+18,-0.013228662312030792,-0.005029536318033934,0.04699984579171157
131,1.6705026730295803e+18,-0.013272114098072052,-0.005117722321301699,0.045089249648601726
132,1.6705026730337777e+18,-0.013535015285015106,-0.0051406435668468475,0.044999150481143335
133,1.670502673038988e+18,-0.014030620455741882,-0.005030068103224039,0.04808454238602233
134,1.6705026730420966e+18,-0.014344334602355957,-0.004960487829521298,0.049660881971690385
135,1.6705026730470766e+18,-0.014571145176887512,-0.004924964625388384,0.04882998089327595
136,1.6705026730505372e+18,-0.014804653823375702,-0.005040539661422372,0.04825720154123747
137,1.6705026730544095e+18,-0.014985039830207825,-0.004947987385094166,0.047609759616309866
138,1.6705026730581094e+18,-0.015135593712329865,-0.00497080385684967,0.04956886659366111
139,1.6705026730630182e+18,-0.015428148210048676,-0.004989150678738952,0.049430361563150615
140,1.6705026730671534e+18,-0.015366345643997192,-0.0050723860040307045,0.049364438194715365
141,1.6705026730716385e+18,-0.0155709907412529,-0.005077269626781344,0.05126769946385945
142,1.6705026730757903e+18,-0.015554897487163544,-0.005156295374035835,0.052864060044905736
143,1.6705026730795896e+18,-0.01575532555580139,-0.005204124841839075,0.05487438069254802
144,1.6705026730836362e+18,-0.01582818478345871,-0.0051832012832164764,0.05619775453416187
145,1.6705026730878546e+18,-0.015973486006259918,-0.005146931856870651,0.058225545429504866
146,1.6705026730921464e+18,-0.0159912109375,-0.005212038988247514,0.061184924838042054
147,1.6705026730961536e+18,-0.016004234552383423,-0.005208142567425966,0.06114171816363201
148,1.6705026731013542e+18,-0.015822261571884155,-0.00528968614526093,0.06161538586064541
149,1.6705026731046548e+18,-0.01575344055891037,-0.005350508261471987,0.059419239168675864
150,1.6705026731091907e+18,-0.015730053186416626,-0.0053467468824237585,0.06031778044409686
151,1.6705026731129472e+18,-0.015644393861293793,-0.005179355852305889,0.05896843720763356
152,1.670502673117083e+18,-0.015652067959308624,-0.0051158396527171135,0.06512077135178651
153,1.670502673121248e+18,-0.015978708863258362,-0.005113308317959309,0.07589766031898448
154,1.6705026731254518e+18,-0.015856720507144928,-0.0051946197636425495,0.08161503013328386
155,1.6705026731301266e+18,-0.015673525631427765,-0.005290572298690677,0.0871713759579551
156,1.6705026731337503e+18,-0.015543930232524872,-0.005267794709652662,0.09084443232630401
157,1.6705026731385329e+18,-0.015201158821582794,-0.005296468967571855,0.09805905389903224
158,1.6705026731419768e+18,-0.014978565275669098,-0.005374925676733255,0.10470914042643309
159,1.670502673146172e+18,-0.014604926109313965,-0.005401024362072349,0.11230382340097078
160,1.6705026731502794e+18,-0.014463089406490326,-0.005451519042253494,0.11675754671399696
161,1.6705026731543455e+18,-0.014441609382629395,-0.00542945833876729,0.12045800165543952
162,1.6705026731583037e+18,-0.014167435467243195,-0.00551321217790246,0.12729048270301835
163,1.6705026731631263e+18,-0.013767346739768982,-0.005618440918624401,0.13642043316732755
164,1.670502673167337e+18,-0.013330891728401184,-0.005765856709331274,0.14644496404831764
165,1.6705026731711496e+18,-0.013068623840808868,-0.005800086306408048,0.1543878024695593
166,1.6705026731754232e+18,-0.012573905289173126,-0.005785701330751181,0.16403840676738746
167,1.670502673178863e+18,-0.012156806886196136,-0.005816834978759289,0.1732450555210221
168,1.6705026731835884e+18,-0.011746227741241455,-0.006037877406924963,0.18410805038998257
169,1.670502673187948e+18,-0.011395461857318878,-0.00615015160292387,0.1930787100924103
170,1.6705026731928381e+18,-0.011002123355865479,-0.006199002731591463,0.20176126195130006
171,1.6705026731967235e+18,-0.010364606976509094,-0.006500460673123598,0.21620336132429507
172,1.6705026732007232e+18,-0.010067380964756012,-0.006510652601718903,0.22553086092738805
173,1.6705026732050117e+18,-0.00922391563653946,-0.006693657021969557,0.24048495397691205
174,1.6705026732089969e+18,-0.00889122486114502,-0.0069286576472222805,0.2508718972142785
175,1.6705026732128253e+18,-0.008467674255371094,-0.0070180329494178295,0.25950264715247173
176,1.6705026732168266e+18,-0.007948815822601318,-0.0070732696913182735,0.2702331560433804
177,1.6705026732229325e+18,-0.007448434829711914,-0.007091862615197897,0.2802956174908571
178,1.6705026732254408e+18,-0.007075808942317963,-0.007059588562697172,0.2872837868175049
179,1.6705026732298964e+18,-0.006517067551612854,-0.007188477087765932,0.30047457612451334
180,1.6705026732339958e+18,-0.005927689373493195,-0.00728468457236886,0.31311933792300106
181,1.6705026732374006e+18,-0.005407549440860748,-0.007410880643874407,0.3247116667893821
182,1.6705026732419753e+18,-0.004876777529716492,-0.007492755074054003,0.33849518036962256
183,1.6705026732461888e+18,-0.004310883581638336,-0.007586803752928972,0.3513133722060564
184,1.6705026732501686e+18,-0.003832109272480011,-0.0075387810356915,0.36367804359958833
185,1.670502673255422e+18,-0.0030976608395576477,-0.007592538837343454,0.3815832460927322
186,1.6705026732587502e+18,-0.0026238784193992615,-0.007597426418215036,0.39343735349774756
187,1.6705026732631775e+18,-0.002374880015850067,-0.007676329929381609,0.40773367117994974
188,1.6705026732673242e+18,-0.0017903521656990051,-0.007730624172836542,0.4238502669043598
189,1.6705026732714422e+18,-0.001603446900844574,-0.007509205024689436,0.43429677086325125
190,1.6705026732755779e+18,-0.0008035823702812195,-0.007726240437477827,0.4510916538086467
191,1.6705026732796032e+18,-0.0006560832262039185,-0.007463241461664438,0.463339587725617
192,1.6705026732849485e+18,-0.0003306344151496887,-0.007373358588665724,0.48065947005848475
193,1.6705026732883436e+18,8.016824722290039e-05,-0.00729003781452775,0.49716916290193947
194,1.6705026732926625e+18,0.0008128657937049866,-0.007382267154753208,0.5181527396442487
195,1.6705026732967153e+18,0.0012032240629196167,-0.007224356289952993,0.5318483844534336
196,1.6705026733011745e+18,0.0015210360288619995,-0.007187020964920521,0.5469672410882986
197,1.67050267330489e+18,0.002179749310016632,-0.007028744090348482,0.5640177626699985
198,1.6705026733091958e+18,0.002514973282814026,-0.006792616564780474,0.5782802026209253
199,1.6705026733132667e+18,0.0029976293444633484,-0.006718077696859837,0.5965437831232459
200,1.6705026733176893e+18,0.0033167004585266113,-0.006501413066871464,0.6132616614591999
201,1.670502673321731e+18,0.003575928509235382,-0.006126523017883301,0.6272814003362193
202,1.6705026733256742e+18,0.003939278423786163,-0.006027113879099488,0.6446263754972064
203,1.670502673330685e+18,0.004385910928249359,-0.006014888174831867,0.6611223770581764
204,1.6705026733338593e+18,0.004719533026218414,-0.005841136677190661,0.6752486877366537
205,1.6705026733383168e+18,0.00486186146736145,-0.00566716305911541,0.6899903633191151
206,1.6705026733422042e+18,0.005096748471260071,-0.005550455534830689,0.7036382593387924
207,1.6705026733471196e+18,0.005184747278690338,-0.005456813843920827,0.7152034599907999
208,1.670502673349828e+18,0.0050967782735824585,-0.005482337903231382,0.7266970554195598
209,1.670502673354591e+18,0.005139797925949097,-0.0055037871934473515,0.7357436558413468
210,1.670502673359001e+18,0.005223982036113739,-0.005483789602294564,0.7464456570411881
211,1.6705026733634217e+18,0.005232706665992737,-0.005473146215081215,0.7537961014610599
212,1.670502673367334e+18,0.005286462604999542,-0.005450785392895341,0.7603520620833799
213,1.670502673371244e+18,0.005456216633319855,-0.005508506903424859,0.7681649129344144
214,1.6705026733765427e+18,0.0055285170674324036,-0.005595622584223747,0.7717563151272029
215,1.6705026733801216e+18,0.005573302507400513,-0.005668735131621361,0.7761556959283911
216,1.6705026733839857e+18,0.005484536290168762,-0.005737566854804754,0.7807211041496038
217,1.6705026733880428e+18,0.0054142773151397705,-0.005877330433577299,0.7848587099868327
218,1.6705026733928535e+18,0.005387566983699799,-0.006016775267198682,0.7866907223378279
