,time,x,y,theta
0,1.6698222756548278e+18,-0.08614903129637241,-0.045829009264707565,0.2462473725131109
1,1.6698222756584125e+18,-0.08582409843802452,-0.0456373505294323,0.23167408385556176
2,1.6698222756618552e+18,-0.08554242923855782,-0.045501675456762314,0.2218675987995582
3,1.6698222756670866e+18,-0.08505471795797348,-0.04537728801369667,0.20975103623045843
4,1.6698222756705021e+18,-0.08470641262829304,-0.0450008250772953,0.20048282182315136
5,1.6698222756748214e+18,-0.08409150689840317,-0.04478922858834267,0.18701123702673983
6,1.669822275678985e+18,-0.08384034410119057,-0.04459470883011818,0.18145932073943016
7,1.669822275683704e+18,-0.08337774686515331,-0.044468630105257034,0.1714078361713205
8,1.6698222756877632e+18,-0.0827626958489418,-0.04433738812804222,0.1618052426879899
9,1.6698222756916183e+18,-0.08238441869616508,-0.044073376804590225,0.1560086211293561
10,1.6698222756957025e+18,-0.08191611059010029,-0.04379801079630852,0.14693334006198455
11,1.6698222757001416e+18,-0.08157349098473787,-0.043592292815446854,0.13888836809330285
12,1.6698222757042831e+18,-0.08111412543803453,-0.043373387306928635,0.13000168107830024
13,1.6698222757082227e+18,-0.08060742635279894,-0.04338277503848076,0.11882331895440834
14,1.6698222757129871e+18,-0.08032709825783968,-0.043258387595415115,0.10995599898653796
15,1.66982227571663e+18,-0.07997833751142025,-0.043345388025045395,0.09977516614570092
16,1.669822275720694e+18,-0.0795136746019125,-0.043190229684114456,0.09073835531585517
17,1.6698222757248517e+18,-0.07928385213017464,-0.04312308505177498,0.08469893918203453
18,1.669822275729304e+18,-0.07880437094718218,-0.04302002117037773,0.07301079033434266
19,1.6698222757331756e+18,-0.07818781770765781,-0.04280088469386101,0.058077912959986655
20,1.669822275737486e+18,-0.07755916565656662,-0.04257304593920708,0.04155693853407283
21,1.6698222757414e+18,-0.07691939547657967,-0.04247073456645012,0.031788357928701716
22,1.6698222757459574e+18,-0.07652994431555271,-0.04209805652499199,0.02163690812549235
23,1.6698222757497828e+18,-0.07603484019637108,-0.041917670518159866,0.008356659054276738
24,1.669822275754243e+18,-0.07540415972471237,-0.04178870841860771,-0.0028241664323158666
25,1.6698222757587433e+18,-0.07477053627371788,-0.04173581674695015,-0.012912583086558405
26,1.6698222757625705e+18,-0.0742733757942915,-0.04159660264849663,-0.020222127229737596
27,1.6698222757666854e+18,-0.07372820796445012,-0.04150831326842308,-0.030410505248197994
28,1.669822275770675e+18,-0.07330255350098014,-0.041299495846033096,-0.04039178010920352
29,1.669822275775122e+18,-0.07279329188168049,-0.04106048122048378,-0.050504301413221375
30,1.6698222757790423e+18,-0.07235406804829836,-0.04083121940493584,-0.060543068632527675
31,1.6698222757833664e+18,-0.07197567727416754,-0.04063333943486214,-0.06752535489211176
32,1.6698222757879708e+18,-0.0714711882174015,-0.04038281366229057,-0.07809625765709094
33,1.669822275791417e+18,-0.071030268445611,-0.04019784554839134,-0.08766798006729037
34,1.6698222757960742e+18,-0.0704188346862793,-0.04003630205988884,-0.09819761605464272
35,1.6698222758004828e+18,-0.06993045471608639,-0.03966938331723213,-0.10659541391556626
36,1.6698222758041047e+18,-0.06944690272212029,-0.039475906640291214,-0.11434333956575737
37,1.669822275808242e+18,-0.06895532598719001,-0.039223771542310715,-0.12164385214592288
38,1.6698222758131139e+18,-0.06854765024036169,-0.03889673575758934,-0.13051769522988654
39,1.6698222758169623e+18,-0.06797480396926403,-0.0386170856654644,-0.1384754404669568
40,1.669822275820854e+18,-0.06755321100354195,-0.038286272436380386,-0.1446107248928845
41,1.6698222758252777e+18,-0.06704072654247284,-0.03801875188946724,-0.15280728325857806
42,1.6698222758290552e+18,-0.06654795352369547,-0.037675101310014725,-0.1600581945903432
43,1.6698222758323697e+18,-0.06606345064938068,-0.03728754445910454,-0.16634413114580915
44,1.6698222758370568e+18,-0.06553819961845875,-0.036774586886167526,-0.17080628139783127
45,1.669822275841511e+18,-0.06503215245902538,-0.03639526292681694,-0.17743737189825604
46,1.6698222758454449e+18,-0.06453166482970119,-0.03598910942673683,-0.18168500826693434
47,1.6698222758502956e+18,-0.06399921257980168,-0.03556426241993904,-0.1845307636848288
48,1.6698222758541627e+18,-0.06343689979985356,-0.03504287824034691,-0.189292804320901
49,1.6698222758583887e+18,-0.06297306530177593,-0.03446700796484947,-0.1944789935103095
50,1.6698222758624456e+18,-0.06240337481722236,-0.034013163298368454,-0.1964212268039549
51,1.6698222758669153e+18,-0.06184368673712015,-0.03360123559832573,-0.19964576773471454
52,1.6698222758708936e+18,-0.0612387815490365,-0.03293297812342644,-0.2016048217782933
53,1.6698222758744328e+18,-0.06070218747481704,-0.03228401020169258,-0.2051600246960681
54,1.669822275878872e+18,-0.0602063313126564,-0.03179984167218208,-0.2075603508019288
55,1.6698222758836554e+18,-0.05954947508871555,-0.031293805688619614,-0.20895233559193582
56,1.6698222758877028e+18,-0.05903437593951821,-0.030623216181993484,-0.21243209386175388
57,1.6698222758916032e+18,-0.05852523818612099,-0.030081797391176224,-0.21346461683391915
58,1.6698222758963832e+18,-0.05796035751700401,-0.02949872985482216,-0.21577048324200532
59,1.6698222758999916e+18,-0.057443516328930855,-0.028947215527296066,-0.21788462852193735
60,1.669822275904432e+18,-0.05669786594808102,-0.028410058468580246,-0.22335349654739134
61,1.669822275908297e+18,-0.05614951625466347,-0.027824919670820236,-0.2236755473471821
62,1.6698222759128233e+18,-0.05563958827406168,-0.027103859931230545,-0.2243147085896624
63,1.6698222759167414e+18,-0.05514407157897949,-0.02654515579342842,-0.2253477992639712
64,1.6698222759211564e+18,-0.05455769319087267,-0.026007313281297684,-0.2270829466338331
65,1.6698222759252518e+18,-0.05390621908009052,-0.025403190404176712,-0.23091334858172186
66,1.6698222759294108e+18,-0.053137995302677155,-0.024723771959543228,-0.23202904066124352
67,1.669822275932866e+18,-0.0526723675429821,-0.024274688214063644,-0.2309174841930437
68,1.6698222759373292e+18,-0.05213765427470207,-0.023674186319112778,-0.23176947753934996
69,1.6698222759422628e+18,-0.05142389144748449,-0.023104894906282425,-0.2351095738847644
70,1.6698222759458276e+18,-0.05097551550716162,-0.022426534444093704,-0.23876521190551458
71,1.669822275950045e+18,-0.05052110552787781,-0.0217900387942791,-0.23943900967060627
72,1.669822275953595e+18,-0.0499814972281456,-0.021214116364717484,-0.23746348230482317
73,1.6698222759583316e+18,-0.0492570698261261,-0.020655322819948196,-0.24221345418911167
74,1.6698222759623378e+18,-0.04862764850258827,-0.020074855536222458,-0.24303929598777008
75,1.6698222759662748e+18,-0.048161789774894714,-0.01946297660470009,-0.24582322362932074
76,1.6698222759703626e+18,-0.047651734203100204,-0.01884482055902481,-0.24412750336554656
77,1.6698222759743634e+18,-0.046895721927285194,-0.01811596378684044,-0.24157442145397723
78,1.6698222759793876e+18,-0.04654040187597275,-0.01748371496796608,-0.24522119847071266
79,1.6698222759831951e+18,-0.045881835743784904,-0.016917578876018524,-0.247021415871163
80,1.669822275987871e+18,-0.045148031786084175,-0.016346309334039688,-0.24629935951546122
81,1.669822275991615e+18,-0.04452944174408913,-0.01567503809928894,-0.24906028777797196
82,1.6698222759959178e+18,-0.043887460604310036,-0.015024546533823013,-0.250474020445423
83,1.6698222759997215e+18,-0.04341188818216324,-0.014459844678640366,-0.24889877008018813
84,1.6698222760065969e+18,-0.042931487783789635,-0.013776261359453201,-0.24591924914738317
85,1.669822276008507e+18,-0.04225512221455574,-0.013099834322929382,-0.24865723406917395
86,1.6698222760126712e+18,-0.041569435968995094,-0.01247137039899826,-0.24980824862287987
87,1.6698222760165568e+18,-0.041043199598789215,-0.011812485754489899,-0.25025374794810906
88,1.6698222760209838e+18,-0.04058501496911049,-0.011178404092788696,-0.2502955609624582
89,1.6698222760250368e+18,-0.04014057479798794,-0.010532181710004807,-0.2503410585517414
90,1.6698222760289582e+18,-0.03943253308534622,-0.009812884032726288,-0.2496624381507293
91,1.669822276033591e+18,-0.03901240602135658,-0.009186092764139175,-0.25230375178208697
92,1.6698222760374226e+18,-0.03845190070569515,-0.008623085916042328,-0.2521403572924603
93,1.6698222760415772e+18,-0.03789627365767956,-0.007831785827875137,-0.2508472297867357
94,1.669822276046658e+18,-0.03722813539206982,-0.007188793271780014,-0.2547757956440748
95,1.669822276049859e+18,-0.036446260288357735,-0.006661705672740936,-0.2530269672160981
96,1.6698222760542564e+18,-0.035880204290151596,-0.005980495363473892,-0.2522644343173672
97,1.669822276058072e+18,-0.03534279763698578,-0.005262758582830429,-0.25190327134810464
98,1.669822276061763e+18,-0.034828461706638336,-0.0046802423894405365,-0.25225267324406553
99,1.669822276066903e+18,-0.0343107134103775,-0.004045400768518448,-0.2534637939616706
100,1.6698222760710723e+18,-0.0338667668402195,-0.0034259818494319916,-0.2549392735895828
101,1.6698222760747197e+18,-0.03323366865515709,-0.002708975225687027,-0.25618410670121494
102,1.6698222760789376e+18,-0.032529283314943314,-0.002148520201444626,-0.25852822839534806
103,1.6698222760829827e+18,-0.03188790753483772,-0.0014044344425201416,-0.25526627944310687
104,1.669822276087892e+18,-0.031243566423654556,-0.000933382660150528,-0.25706079822017824
105,1.6698222760916052e+18,-0.030686259269714355,-0.00023402273654937744,-0.25785762034693493
106,1.6698222760966856e+18,-0.030140843242406845,0.00042501091957092285,-0.2561864840028194
107,1.6698222761001336e+18,-0.029606852680444717,0.0011288486421108246,-0.2554801216564746
108,1.669822276104377e+18,-0.029050301760435104,0.001723404973745346,-0.25684414325622806
109,1.6698222761080087e+18,-0.028536301106214523,0.002304583787918091,-0.2594444855179676
110,1.669822276111828e+18,-0.027799535542726517,0.002881500869989395,-0.2610826424772352
111,1.6698222761164378e+18,-0.02729356288909912,0.0036022067070007324,-0.2606828363775253
112,1.669822276120362e+18,-0.026715844869613647,0.004163786768913269,-0.26250483483938747
113,1.6698222761248348e+18,-0.026176393032073975,0.004752151668071747,-0.2645236667002395
114,1.669822276129167e+18,-0.025627069175243378,0.005308672785758972,-0.2663044492055484
115,1.66982227613329e+18,-0.025157038122415543,0.005732830613851547,-0.2671945617915228
116,1.6698222761374213e+18,-0.024641655385494232,0.006287761032581329,-0.26790399201443393
117,1.669822276142497e+18,-0.02425672858953476,0.00676940381526947,-0.2696074867572298
118,1.6698222761454275e+18,-0.023771513253450394,0.007293667644262314,-0.2707698198357229
119,1.66982227614961e+18,-0.023239433765411377,0.007811024785041809,-0.27477391497192194
120,1.6698222761535168e+18,-0.02298513427376747,0.00818813219666481,-0.2756088689919445
121,1.6698222761585482e+18,-0.022509373724460602,0.00858432799577713,-0.27965029110000494
122,1.669822276162611e+18,-0.021917250007390976,0.00902167335152626,-0.2818581017918387
123,1.6698222761665295e+18,-0.021569479256868362,0.009516794234514236,-0.2816756544207917
124,1.669822276170551e+18,-0.021351657807826996,0.010124651715159416,-0.28013575750533537
125,1.6698222761748073e+18,-0.021199185401201248,0.010629024356603622,-0.2792685441478713
126,1.669822276178781e+18,-0.02081325650215149,0.011075396090745926,-0.2792223360654973
127,1.6698222761830456e+18,-0.02045143023133278,0.011559493839740753,-0.2804871425791078
128,1.6698222761881638e+18,-0.020096078515052795,0.011925598606467247,-0.2809564188006872
129,1.6698222761914742e+18,-0.019756995141506195,0.012357816100120544,-0.28016202359124587
130,1.669822276196032e+18,-0.019412733614444733,0.012803826481103897,-0.27842667682212174
131,1.6698222761999332e+18,-0.01922577992081642,0.013253800570964813,-0.2756622985508925
132,1.6698222762039421e+18,-0.019010499119758606,0.01377510279417038,-0.27239165389371367
133,1.6698222762079918e+18,-0.018707718700170517,0.01425870880484581,-0.27054531945826765
134,1.6698222762118907e+18,-0.01830875128507614,0.01463325135409832,-0.2712149540543034
135,1.669822276216178e+18,-0.018058784306049347,0.015154218301177025,-0.2689434662810959
136,1.669822276221006e+18,-0.01814046874642372,0.015705430880188942,-0.2617772201227533
137,1.669822276225103e+18,-0.018097832798957825,0.01614251174032688,-0.25707452333724734
138,1.6698222762290437e+18,-0.018076278269290924,0.016650665551424026,-0.2513418279180144
139,1.6698222762331638e+18,-0.018076490610837936,0.017244979739189148,-0.24650749648997627
140,1.66982227623722e+18,-0.01793718710541725,0.017647944390773773,-0.241952815605341
141,1.6698222762413624e+18,-0.017838265746831894,0.018086165189743042,-0.2355018393603734
142,1.669822276245508e+18,-0.01770908758044243,0.01863224059343338,-0.2283212716159264
143,1.669822276250445e+18,-0.01764446496963501,0.019079409539699554,-0.2203464028930422
144,1.669822276254387e+18,-0.017495423555374146,0.01945951208472252,-0.20960053702901682
145,1.6698222762583145e+18,-0.01747642084956169,0.01988966390490532,-0.20082038664457835
146,1.6698222762621965e+18,-0.017460834234952927,0.020325426012277603,-0.19122717290305724
147,1.669822276266233e+18,-0.017415925860404968,0.02080976590514183,-0.18191014575114872
148,1.669822276270282e+18,-0.017340820282697678,0.021247562021017075,-0.17464954955803913
149,1.6698222762748424e+18,-0.01735624298453331,0.02170950546860695,-0.16663593397617138
150,1.6698222762797192e+18,-0.0175250805914402,0.02217646688222885,-0.15774825581697582
151,1.6698222762832758e+18,-0.01760568469762802,0.022546570748090744,-0.14626656092422508
152,1.6698222762877496e+18,-0.017621152102947235,0.023026995360851288,-0.1374906074726705
153,1.669822276291448e+18,-0.017580971121788025,0.023471379652619362,-0.1290100791044504
154,1.669822276295502e+18,-0.017556823790073395,0.02386734075844288,-0.12033540292312828
155,1.669822276299572e+18,-0.01769227534532547,0.024471508339047432,-0.10917458254789292
156,1.66982227630372e+18,-0.017740607261657715,0.024734148755669594,-0.09787636543262068
157,1.669822276307979e+18,-0.017804108560085297,0.025086458772420883,-0.08636832025350105
158,1.66982227631262e+18,-0.01792583242058754,0.02548665925860405,-0.07683051794648055
159,1.669822276316659e+18,-0.017912093549966812,0.02567446604371071,-0.06943093121139099
160,1.6698222763207421e+18,-0.017982985824346542,0.026132849976420403,-0.057877890287528544
161,1.6698222763247585e+18,-0.01793227344751358,0.026796129532158375,-0.04639503120094912
162,1.6698222763290025e+18,-0.018027152866125107,0.027256807312369347,-0.034802118492820666
163,1.6698222763330115e+18,-0.01810264214873314,0.027660086750984192,-0.024829364476187
164,1.669822276337053e+18,-0.01814909279346466,0.028083874844014645,-0.016531428975339324
165,1.669822276342114e+18,-0.01814422383904457,0.028528262861073017,-0.005303772896091186
166,1.6698222763460526e+18,-0.01822386309504509,0.02918326109647751,0.0047384109412547115
167,1.6698222763500314e+18,-0.01821330189704895,0.029616601765155792,0.01722497008558488
168,1.6698222763531246e+18,-0.018257468938827515,0.030076783150434494,0.028143833542924046
169,1.6698222763580856e+18,-0.01825810596346855,0.030191036872565746,0.040495889688125564
170,1.6698222763621732e+18,-0.018275856971740723,0.03042133618146181,0.04990238390821933
171,1.669822276366225e+18,-0.018393956124782562,0.031193148344755173,0.062473012038392284
172,1.6698222763702694e+18,-0.01827520877122879,0.03164319321513176,0.0740171603702291
173,1.6698222763745027e+18,-0.01838800683617592,0.032346611842513084,0.08100849646355468
174,1.669822276379469e+18,-0.018414482474327087,0.03280597738921642,0.09104924438651851
175,1.6698222763833329e+18,-0.01859642192721367,0.033119275234639645,0.10633055781946443
176,1.6698222763873224e+18,-0.018503420054912567,0.03358789021149278,0.11726512998198557
177,1.6698222763914345e+18,-0.018377386033535004,0.034118232782930136,0.12385348853397815
178,1.6698222763954514e+18,-0.018375635147094727,0.0345318466424942,0.13356560088725988
179,1.6698222763997263e+18,-0.01840585097670555,0.03492647968232632,0.1444139426136295
180,1.6698222764042913e+18,-0.01852036640048027,0.035515058785676956,0.15735944191715667
181,1.6698222764084667e+18,-0.018492747098207474,0.03600388206541538,0.16872409262830246
182,1.6698222764135772e+18,-0.01843227446079254,0.03640265762805939,0.1791241154047547
183,1.669822276417462e+18,-0.018386870622634888,0.03684813063591719,0.18699902962461712
184,1.6698222764222141e+18,-0.01845967024564743,0.037266098195686936,0.1970969686999131
185,1.6698222764262666e+18,-0.01853523775935173,0.03769289515912533,0.20873956623469314
186,1.669822276430253e+18,-0.018459834158420563,0.03827166557312012,0.22569144933885665
187,1.6698222764331287e+18,-0.01848722994327545,0.038869993295520544,0.2326658851781891
188,1.6698222764377103e+18,-0.01855238527059555,0.03933956939727068,0.24746375229838424
189,1.6698222764415626e+18,-0.018403295427560806,0.03966817073523998,0.2567567169201448
190,1.6698222764457572e+18,-0.018436457961797714,0.04037253465503454,0.26777191924436505
191,1.6698222764506138e+18,-0.018296431750059128,0.04076160490512848,0.2785953763070448
192,1.6698222764543296e+18,-0.01834726706147194,0.04130649380385876,0.28855145877983657
193,1.669822276458373e+18,-0.018395815044641495,0.04161219857633114,0.30270573774309106
194,1.669822276462212e+18,-0.018341384828090668,0.04209684580564499,0.3127103591998175
195,1.6698222764660943e+18,-0.01829104870557785,0.04245487600564957,0.3233230108637659
196,1.6698222764705247e+18,-0.018276575952768326,0.04289045371115208,0.3351631127311987
197,1.669822276474651e+18,-0.01830931380391121,0.04348430875688791,0.3474541938627833
198,1.6698222764794158e+18,-0.01832277700304985,0.04402513522654772,0.3600357593530936
199,1.6698222764834363e+18,-0.018297404050827026,0.04425436072051525,0.37324396526557235
200,1.6698222764877865e+18,-0.01828751713037491,0.04462972888723016,0.3843503838443221
201,1.6698222764917622e+18,-0.01821383461356163,0.04518486279994249,0.3941429886391541
202,1.669822276496644e+18,-0.018166888505220413,0.04558808635920286,0.40585677238540097
203,1.6698222765000986e+18,-0.018275883048772812,0.046147800981998444,0.41823177822997604
204,1.6698222765041418e+18,-0.018275104463100433,0.0465201660990715,0.4303688011800215
205,1.6698222765080517e+18,-0.018236462026834488,0.047022631391882896,0.441708807151318
206,1.6698222765129981e+18,-0.018152806907892227,0.047558422200381756,0.4543637888944603
207,1.6698222765167421e+18,-0.01815463975071907,0.04796905955299735,0.46519495067424677
208,1.6698222765209672e+18,-0.01799190044403076,0.04842016566544771,0.47625857936088467
209,1.66982227652505e+18,-0.017920490354299545,0.04890323709696531,0.48657544941704556
210,1.669822276529493e+18,-0.01799338310956955,0.04946322739124298,0.4962397864160706
211,1.6698222765332667e+18,-0.01787889003753662,0.04987719655036926,0.5071519183729802
212,1.66982227653729e+18,-0.017885934561491013,0.05030309967696667,0.5190951609542327
213,1.6698222765421655e+18,-0.017851166427135468,0.05082185659557581,0.5290227277062995
214,1.66982227654571e+18,-0.017768707126379013,0.05135147459805012,0.5390629464658354
215,1.6698222765502935e+18,-0.017804402858018875,0.051908875815570354,0.5500267195671373
216,1.6698222765540168e+18,-0.01772187650203705,0.052366092801094055,0.5601265666801547
217,1.6698222765586698e+18,-0.01765666902065277,0.05294432584196329,0.5714264984994784
218,1.669822276562664e+18,-0.01769702509045601,0.05352255702018738,0.5820363634121097
219,1.6698222765668772e+18,-0.017756719142198563,0.05386721435934305,0.5939572069520023
220,1.6698222765708933e+18,-0.017794959247112274,0.05439284536987543,0.6050926337122453
221,1.669822276575096e+18,-0.017699263989925385,0.05510984640568495,0.6155537236948438
222,1.6698222765792724e+18,-0.017658215016126633,0.055461276322603226,0.6284393768146201
223,1.669822276583213e+18,-0.017579328268766403,0.05584806762635708,0.6412806755201848
224,1.6698222765880356e+18,-0.017613548785448074,0.056279804557561874,0.6513944090256629
