,time,x,y,theta
0,1.6698233953528965e+18,-0.005901321768760681,-0.04924855753779411,-0.3286916542738576
1,1.6698233953576218e+18,-0.006121963262557983,-0.04885995760560036,-0.32154968585404764
2,1.6698233953619702e+18,-0.006193295121192932,-0.048501599580049515,-0.315929524033828
3,1.669823395365858e+18,-0.006490528583526611,-0.04808416590094566,-0.308850504080181
4,1.6698233953702984e+18,-0.006570383906364441,-0.04777440428733826,-0.30470924002617483
5,1.6698233953744783e+18,-0.006880521774291992,-0.04739699512720108,-0.29894436982226424
6,1.6698233953785953e+18,-0.007166072726249695,-0.04694671928882599,-0.2916369673499566
7,1.6698233953827026e+18,-0.0074180662631988525,-0.046498946845531464,-0.28532824575081883
8,1.669823395387094e+18,-0.0074801966547966,-0.04610983654856682,-0.2789208836751462
9,1.669823395391146e+18,-0.007786281406879425,-0.04577677696943283,-0.2736239842951216
10,1.6698233953951972e+18,-0.007990367710590363,-0.04529379680752754,-0.2675561528585815
11,1.6698233953990554e+18,-0.008220948278903961,-0.04490496218204498,-0.26202042681264026
12,1.6698233954038313e+18,-0.008470587432384491,-0.044421445578336716,-0.25179018805735165
13,1.6698233954077486e+18,-0.008663542568683624,-0.04403319209814072,-0.2411971218016462
14,1.6698233954117555e+18,-0.008829854428768158,-0.043676868081092834,-0.23307363641788648
15,1.6698233954162038e+18,-0.009040288627147675,-0.043284300714731216,-0.22320874951369074
16,1.6698233954204485e+18,-0.009372882544994354,-0.042913176119327545,-0.21471053874511625
17,1.669823395424237e+18,-0.009577944874763489,-0.04243319481611252,-0.21068125496669565
18,1.669823395427504e+18,-0.009832441806793213,-0.04203449562191963,-0.20096356262477078
19,1.669823395433277e+18,-0.010268427431583405,-0.0415368378162384,-0.19371157057185062
20,1.6698233954367444e+18,-0.010580629110336304,-0.04118267074227333,-0.18587518737321118
21,1.6698233954407995e+18,-0.0109139084815979,-0.04066623002290726,-0.1767412564233548
22,1.6698233954461197e+18,-0.011088930070400238,-0.04038682579994202,-0.1686074792175567
23,1.669823395450127e+18,-0.011311456561088562,-0.04008343443274498,-0.15993580935498475
24,1.669823395453641e+18,-0.011577092111110687,-0.03963461518287659,-0.1531176377970871
25,1.6698233954576177e+18,-0.011878885328769684,-0.039180077612400055,-0.14531577583836341
26,1.669823395461659e+18,-0.011970840394496918,-0.03883061185479164,-0.1383548908431096
27,1.6698233954660076e+18,-0.01250157505273819,-0.03832216560840607,-0.13201324766735456
28,1.6698233954699118e+18,-0.012762024998664856,-0.037959419190883636,-0.12258682638363494
29,1.669823395474013e+18,-0.012966111302375793,-0.03747166693210602,-0.11564333276552219
30,1.6698233954790008e+18,-0.013225279748439789,-0.03707047551870346,-0.10587175558195505
31,1.6698233954825352e+18,-0.013568565249443054,-0.03662021830677986,-0.09754719390680067
32,1.6698233954868664e+18,-0.013747908174991608,-0.03623751923441887,-0.09245281990714438
33,1.669823395491097e+18,-0.013676434755325317,-0.0358952097594738,-0.0827812703546138
34,1.6698233954959455e+18,-0.013925395905971527,-0.03546195849776268,-0.07392550750143623
35,1.6698233954991406e+18,-0.014183692634105682,-0.03505288064479828,-0.06744586868637281
36,1.6698233955034204e+18,-0.014580242335796356,-0.03458230197429657,-0.05813042759841469
37,1.6698233955074112e+18,-0.014754943549633026,-0.034309569746255875,-0.05121145247259418
38,1.6698233955117632e+18,-0.014953047037124634,-0.034033775329589844,-0.04512397858220307
39,1.6698233955171464e+18,-0.015268921852111816,-0.03367123752832413,-0.03415553405456628
40,1.6698233955200225e+18,-0.01563636213541031,-0.03327688202261925,-0.02545011252061835
41,1.6698233955246536e+18,-0.015802331268787384,-0.03259328752756119,-0.021458205259421215
42,1.669823395528249e+18,-0.01626269519329071,-0.03206101804971695,-0.01038647103602064
43,1.669823395532161e+18,-0.016735747456550598,-0.03173428401350975,-0.0032356165030098527
44,1.6698233955455296e+18,-0.01712045818567276,-0.031503885984420776,0.006850209528578066
45,1.6698233955457354e+18,-0.017426397651433945,-0.0314091332256794,0.013906892816504923
46,1.66982339554597e+18,-0.017644431442022324,-0.03110339120030403,0.02290433587452867
47,1.6698233955496138e+18,-0.017566289752721786,-0.03079996258020401,0.031378832621138386
48,1.6698233955532854e+18,-0.017748408019542694,-0.03032633289694786,0.0408330822933789
49,1.6698233955577661e+18,-0.01809828355908394,-0.029786881059408188,0.049770977482492595
50,1.6698233955621893e+18,-0.018366321921348572,-0.029440484941005707,0.05499484964677981
51,1.6698233955659139e+18,-0.018584340810775757,-0.029244810342788696,0.05987758442820912
52,1.669823395570643e+18,-0.018638599663972855,-0.028898943215608597,0.0680304933866751
53,1.6698233955744645e+18,-0.018905118107795715,-0.02863435447216034,0.0706555528444619
54,1.6698233955786834e+18,-0.01934105157852173,-0.028060216456651688,0.08242947667711031
55,1.6698233955826788e+18,-0.01973428949713707,-0.02783413603901863,0.08892077388783437
56,1.669823395587639e+18,-0.02007405459880829,-0.02730274200439453,0.09667653877083904
57,1.6698233955910298e+18,-0.02036260813474655,-0.027002006769180298,0.10326177858422092
58,1.669823395595477e+18,-0.02057814970612526,-0.026699915528297424,0.10941591276255758
59,1.6698233955993705e+18,-0.020913705229759216,-0.026664044708013535,0.1159995217275338
60,1.6698233956039693e+18,-0.021063651889562607,-0.02623825892806053,0.12413427261789312
61,1.6698233956075453e+18,-0.021495644003152847,-0.025657769292593002,0.12818502315362879
62,1.66982339561166e+18,-0.02164508029818535,-0.025367088615894318,0.13407963849128213
63,1.6698233956162053e+18,-0.021999813616275787,-0.024983149021863937,0.13840192935968565
64,1.6698233956194998e+18,-0.022110838443040848,-0.024974215775728226,0.15097633504096297
65,1.6698233956243907e+18,-0.02251250669360161,-0.024648725986480713,0.15842754715163343
66,1.6698233956283464e+18,-0.02295506000518799,-0.02449091523885727,0.15950833063035308
67,1.6698233956323666e+18,-0.023416779935359955,-0.024128533899784088,0.16372074409225856
68,1.6698233956364518e+18,-0.023801226168870926,-0.0239405557513237,0.1686396022875727
69,1.6698233956406664e+18,-0.023956138640642166,-0.023607779294252396,0.1742765541220137
70,1.6698233956448556e+18,-0.024225782603025436,-0.023039955645799637,0.18047542662384175
71,1.669823395649637e+18,-0.024474047124385834,-0.022647473961114883,0.1842580007493413
72,1.6698233956536668e+18,-0.02472590282559395,-0.022437211126089096,0.18625191561403587
73,1.669823395657886e+18,-0.02497762441635132,-0.022085733711719513,0.18947248653761872
74,1.6698233956618043e+18,-0.025149963796138763,-0.021735435351729393,0.19025578736376025
75,1.6698233956661197e+18,-0.025296419858932495,-0.0213824063539505,0.1913609037034658
76,1.6698233956697498e+18,-0.02548869699239731,-0.021153761073946953,0.19267777849712475
77,1.669823395674954e+18,-0.025600962340831757,-0.020888686180114746,0.19309260771030923
78,1.6698233956782042e+18,-0.02567560225725174,-0.020691514015197754,0.1947318037024881
79,1.6698233956827523e+18,-0.02597905695438385,-0.02063903771340847,0.19455117841338954
80,1.669823395686936e+18,-0.02593974396586418,-0.02038838341832161,0.19110450464063544
81,1.6698233956922747e+18,-0.02628052607178688,-0.020179200917482376,0.19353493387508713
82,1.6698233956951918e+18,-0.026425793766975403,-0.019802819937467575,0.19791210880995003
83,1.6698233956995126e+18,-0.026271574199199677,-0.01960466429591179,0.19706643449542827
84,1.6698233957038807e+18,-0.02638629451394081,-0.019539516419172287,0.19904234777346197
85,1.669823395707652e+18,-0.026590105146169662,-0.01921933703124523,0.19998547303147962
86,1.6698233957117793e+18,-0.02683311700820923,-0.019145283848047256,0.2029597242546326
87,1.6698233957162048e+18,-0.026834599673748016,-0.018824046477675438,0.20006727570671545
88,1.6698233957196477e+18,-0.026829563081264496,-0.018632708117365837,0.1965796008716556
89,1.6698233957246584e+18,-0.026891276240348816,-0.018560297787189484,0.19741090827116037
90,1.6698233957282583e+18,-0.027032073587179184,-0.018288414925336838,0.1974253585710679
91,1.6698233957322176e+18,-0.02706366777420044,-0.01811165362596512,0.19580674323809988
92,1.6698233957365217e+18,-0.027222272008657455,-0.018014296889305115,0.19606159832610226
93,1.6698233957415642e+18,-0.02715335413813591,-0.017793549224734306,0.19153331875478163
94,1.66982339574543e+18,-0.027104593813419342,-0.01751185767352581,0.18828769186189542
95,1.6698233957495194e+18,-0.027142181992530823,-0.01720769703388214,0.1860597537425157
96,1.6698233957540516e+18,-0.027074821293354034,-0.017013810575008392,0.18242472077642957
97,1.669823395757521e+18,-0.027087107300758362,-0.01678323931992054,0.18267274051323557
98,1.669823395761958e+18,-0.027244381606578827,-0.016575342044234276,0.17667859697765254
99,1.6698233957657935e+18,-0.02740176022052765,-0.016253408044576645,0.17525589639651828
100,1.6698233957696832e+18,-0.027534089982509613,-0.016072185710072517,0.1694810332654968
101,1.669823395773959e+18,-0.027567122131586075,-0.01578935980796814,0.1625658254550919
102,1.669823395778079e+18,-0.027567971497774124,-0.01579878479242325,0.15913306808317818
103,1.669823395782324e+18,-0.02766413614153862,-0.01546546071767807,0.15338889854073878
104,1.669823395786681e+18,-0.027683675289154053,-0.015133509412407875,0.14413981027866662
105,1.669823395791191e+18,-0.027824267745018005,-0.014823265373706818,0.1419370934600106
106,1.6698233957960635e+18,-0.027820531278848648,-0.014715449884533882,0.13506856887971552
107,1.6698233957992676e+18,-0.027755223214626312,-0.014401907101273537,0.12935996533541072
108,1.6698233958029248e+18,-0.027883868664503098,-0.01411227323114872,0.1260945894438632
109,1.669823395807414e+18,-0.027816440910100937,-0.013955144211649895,0.11618542359070938
110,1.6698233958117343e+18,-0.027928203344345093,-0.013771362602710724,0.10979934614193754
111,1.6698233958165932e+18,-0.028145626187324524,-0.013601526618003845,0.09994542533987127
112,1.6698233958201477e+18,-0.028181850910186768,-0.013567274436354637,0.09540742696096904
113,1.6698233958244398e+18,-0.028337564319372177,-0.01343563199043274,0.08756094649114043
114,1.6698233958281242e+18,-0.028415009379386902,-0.01337505504488945,0.08409463812797013
115,1.669823395832406e+18,-0.02856406942009926,-0.013031670823693275,0.0744153305109101
116,1.6698233958366397e+18,-0.028593704104423523,-0.012949535623192787,0.06590705556290244
117,1.6698233958407263e+18,-0.028836693614721298,-0.012685885652899742,0.05639592160665918
118,1.6698233958449052e+18,-0.029069270938634872,-0.0124654620885849,0.04694019261402427
119,1.6698233958492925e+18,-0.029217198491096497,-0.012303737923502922,0.03851641803189931
120,1.669823395853892e+18,-0.02936643734574318,-0.01219545304775238,0.03316634281431052
121,1.6698233958577244e+18,-0.029569752514362335,-0.011932065710425377,0.02431204052025948
122,1.6698233958614203e+18,-0.029638588428497314,-0.01149182952940464,0.011758858543762685
123,1.669823395865585e+18,-0.029703546315431595,-0.011195974424481392,0.0014490662370649776
124,1.669823395869942e+18,-0.02962375432252884,-0.010939940810203552,-0.011517113194480233
125,1.6698233958739494e+18,-0.02966867759823799,-0.010663790628314018,-0.02133105707094174
126,1.6698233958791956e+18,-0.03007422387599945,-0.010509219020605087,-0.02789033719087608
127,1.6698233958826982e+18,-0.030203867703676224,-0.010439474135637283,-0.037381124443753855
128,1.669823395887139e+18,-0.0299893356859684,-0.010171443223953247,-0.049856232151708424
129,1.669823395891315e+18,-0.029907554388046265,-0.009972305968403816,-0.061055689758523934
130,1.66982339589521e+18,-0.030172541737556458,-0.009782522916793823,-0.07266698780199121
131,1.6698233958992312e+18,-0.030479155480861664,-0.00964989885687828,-0.08064817672025981
132,1.6698233959044495e+18,-0.030657801777124405,-0.009386030957102776,-0.08655254167370097
133,1.6698233959080965e+18,-0.03064456209540367,-0.009113432839512825,-0.09458139958115952
134,1.6698233959113244e+18,-0.030648473650217056,-0.008866038173437119,-0.1024186073452209
135,1.6698233959163546e+18,-0.030668873339891434,-0.008581694215536118,-0.11214217825655437
136,1.6698233959206533e+18,-0.03073464334011078,-0.008365686982870102,-0.11934981719957372
137,1.669823395924272e+18,-0.030706770718097687,-0.008162114769220352,-0.12788451170019832
138,1.6698233959285338e+18,-0.030709967017173767,-0.00798262283205986,-0.13460689973028783
139,1.6698233959328358e+18,-0.030759789049625397,-0.007686134427785873,-0.14114641451635102
140,1.669823395936939e+18,-0.030695591121912003,-0.0075409263372421265,-0.147427965168065
141,1.6698233959410158e+18,-0.03071725368499756,-0.00746019184589386,-0.1530654934975788
142,1.669823395945543e+18,-0.030840333551168442,-0.0073012541979551315,-0.15750486994495683
143,1.6698233959490335e+18,-0.030870120972394943,-0.007166499271988869,-0.16077301901137564
144,1.6698233959536028e+18,-0.03094387799501419,-0.006907233968377113,-0.16410153920897175
145,1.6698233959579837e+18,-0.03095686435699463,-0.006786733865737915,-0.16716736746233596
146,1.6698233959618895e+18,-0.03103262558579445,-0.006737664341926575,-0.16742869193772414
147,1.6698233959659912e+18,-0.031163543462753296,-0.006592880934476852,-0.16863891629148164
148,1.6698233959710364e+18,-0.03117034211754799,-0.006371231749653816,-0.16954477644948285
149,1.6698233959743916e+18,-0.031249195337295532,-0.006194555200636387,-0.17114182798378397
150,1.6698233959787254e+18,-0.03135736659169197,-0.0060949428007006645,-0.1701774332549535
151,1.6698233959824312e+18,-0.03149588033556938,-0.005935953930020332,-0.16951000020351903
152,1.6698233959869601e+18,-0.031558144837617874,-0.005788423120975494,-0.16706550344243576
153,1.6698233959910323e+18,-0.0316149964928627,-0.0056111179292202,-0.16766234884290587
154,1.6698233959952284e+18,-0.03170166537165642,-0.005317209288477898,-0.16536229978741357
155,1.6698233959994414e+18,-0.031814735382795334,-0.0052302079275250435,-0.16162290218347675
156,1.669823396003775e+18,-0.031895700842142105,-0.0050176773220300674,-0.16126410803395652
157,1.6698233960081564e+18,-0.03191285952925682,-0.004731429740786552,-0.1573624944398948
158,1.669823396011815e+18,-0.0319659598171711,-0.0045723505318164825,-0.15465320367869673
159,1.6698233960162842e+18,-0.032025352120399475,-0.004393474198877811,-0.152701856817669
160,1.669823396020037e+18,-0.032136958092451096,-0.004212150350213051,-0.15010809050848106
161,1.6698233960243005e+18,-0.032274626195430756,-0.004018085077404976,-0.14686603614029803
162,1.6698233960284526e+18,-0.03237671032547951,-0.003664323128759861,-0.1437176834647731
163,1.6698233960328407e+18,-0.03236060217022896,-0.003436775878071785,-0.14106076821011237
164,1.6698233960370217e+18,-0.03242379054427147,-0.0031771641224622726,-0.13826327264311922
165,1.6698233960413814e+18,-0.03247024118900299,-0.0029255421832203865,-0.13270293858695315
166,1.669823396044944e+18,-0.03251858428120613,-0.002666330896317959,-0.12840604863731486
167,1.669823396048958e+18,-0.032750457525253296,-0.00234195776283741,-0.12280023932295347
168,1.669823396053552e+18,-0.03281885385513306,-0.002187584526836872,-0.11831380671245473
169,1.669823396057563e+18,-0.032867614179849625,-0.002009378746151924,-0.11574164253898456
170,1.6698233960621007e+18,-0.033101413398981094,-0.0017841421067714691,-0.11088282131473481
171,1.6698233960659264e+18,-0.033184923231601715,-0.0015670303255319595,-0.10547931890529649
172,1.6698233960699894e+18,-0.03320511057972908,-0.0012249425053596497,-0.09901789932811611
173,1.6698233960743063e+18,-0.03325871005654335,-0.0009291227906942368,-0.09443740310896476
174,1.66982339607837e+18,-0.03320683538913727,-0.000684347003698349,-0.08656245783618055
175,1.6698233960825252e+18,-0.033213891088962555,-0.00036359578371047974,-0.07918133147208817
176,1.6698233960869156e+18,-0.03335820883512497,-0.00020316429436206818,-0.07341003271773183
177,1.6698233960909816e+18,-0.03336426615715027,2.6095658540725708e-05,-0.06615588808068784
178,1.6698233960953152e+18,-0.033361971378326416,0.00027411337941884995,-0.0603736153772092
179,1.669823396098631e+18,-0.03341662138700485,0.0005104653537273407,-0.05314114596581021
180,1.6698233961033684e+18,-0.033461011946201324,0.0010316446423530579,-0.04342462956212212
181,1.6698233961082301e+18,-0.033503856509923935,0.0014535211957991123,-0.03391168969874592
182,1.669823396111536e+18,-0.033800315111875534,0.0017711184918880463,-0.022600164410609747
183,1.669823396116147e+18,-0.033905718475580215,0.002213139086961746,-0.008807383143425662
184,1.6698233961196933e+18,-0.03409001603722572,0.0024687829427421093,0.0010830384840225804
185,1.669823396124473e+18,-0.034289851784706116,0.0027120267041027546,0.01227559172167525
186,1.6698233961283062e+18,-0.03440456464886665,0.0027195587754249573,0.025224103832009126
187,1.6698233961330232e+18,-0.03454453870654106,0.002893995027989149,0.038070751263131086
188,1.6698233961367322e+18,-0.034551650285720825,0.00335815642029047,0.0471995758235324
189,1.6698233961413727e+18,-0.034590624272823334,0.0037497971206903458,0.05922083759688768
190,1.6698233961452367e+18,-0.03461187705397606,0.004069546703249216,0.06891520176698784
191,1.6698233961493742e+18,-0.03469863906502724,0.0043121143244206905,0.07834402172966737
192,1.6698233961539108e+18,-0.03482065722346306,0.004677174147218466,0.08659798620088677
193,1.6698233961574374e+18,-0.03499849513173103,0.004997583571821451,0.09610405208887873
194,1.6698233961618045e+18,-0.03498443588614464,0.0053872165735810995,0.10657132302064065
195,1.6698233961672566e+18,-0.035015769302845,0.0056252372451126575,0.11435585415109473
196,1.6698233961704136e+18,-0.035101767629384995,0.005869260290637612,0.12522532708105794
197,1.6698233961745242e+18,-0.035180918872356415,0.00607856921851635,0.13659085140180838
198,1.66982339617865e+18,-0.03521332889795303,0.006352254655212164,0.1482556388167704
199,1.6698233961824904e+18,-0.035327065736055374,0.006602844689041376,0.1583278426256216
200,1.6698233961868178e+18,-0.035415079444646835,0.006807828787714243,0.17168492608199393
201,1.6698233961910502e+18,-0.035497866570949554,0.007217912469059229,0.18705175113404393
202,1.6698233961951437e+18,-0.035484809428453445,0.007492813281714916,0.2024751519470016
203,1.6698233961995912e+18,-0.03561745956540108,0.007736640051007271,0.21553055268812082
204,1.669823396203661e+18,-0.03561367467045784,0.007900556549429893,0.22574891806911102
205,1.6698233962071956e+18,-0.03582373633980751,0.008324792608618736,0.23924178319701306
206,1.6698233962116585e+18,-0.03594213351607323,0.008548109792172909,0.2509905084670725
207,1.6698233962166126e+18,-0.03615201637148857,0.008939329534769058,0.26713363967348247
208,1.6698233962200082e+18,-0.03629279136657715,0.009243838489055634,0.2800359487639772
209,1.6698233962242865e+18,-0.03632817417383194,0.009666367899626493,0.2907509408652025
210,1.6698233962282524e+18,-0.03634447231888771,0.009967245161533356,0.3015434019408536
211,1.6698233962326874e+18,-0.03649803623557091,0.01031637191772461,0.3113430905891379
212,1.669823396236976e+18,-0.03668329864740372,0.010424544103443623,0.3228880288445768
213,1.6698233962408428e+18,-0.036662757396698,0.010763134341686964,0.3322175959371403
214,1.669823396245463e+18,-0.036957886070013046,0.011194375343620777,0.34178463190714425
215,1.669823396249431e+18,-0.03692474961280823,0.011534585384652019,0.350186121686791
216,1.6698233962537178e+18,-0.0372304804623127,0.011774431448429823,0.3595798108466066
217,1.6698233962575107e+18,-0.03736433386802673,0.01224119495600462,0.36716552110227796
218,1.6698233962624543e+18,-0.037447184324264526,0.012286651879549026,0.37453865732814307
219,1.669823396266247e+18,-0.03747830167412758,0.012605356285348535,0.38784413849529353
220,1.669823396270309e+18,-0.03752751648426056,0.012923297705128789,0.3959331123359242
221,1.6698233962739638e+18,-0.037627846002578735,0.013311287388205528,0.40628696444083956
