,time,x,y,theta
0,0.0,-0.009432598948478699,0.0042057158425450325,0.018744192267464488
1,0.001724331,-0.009592406451702118,0.004263232462108135,0.018681175959217367
2,0.00750827,-0.009985003620386124,0.0043936800211668015,0.01584778078930338
3,0.009655408,-0.010370999574661255,0.004491603933274746,0.014989337238629163
4,0.014255337,-0.010543476790189743,0.004453666508197784,0.013501273212000786
5,0.018620318,-0.01068975031375885,0.00447218120098114,0.013228620078209019
6,0.022916185,-0.010829001665115356,0.004423537291586399,0.012350149638550967
7,0.027423274,-0.010999836027622223,0.004458636045455933,0.01186580446042318
8,0.031293143,-0.011190023273229599,0.004405098035931587,0.012989626912027541
9,0.035095443,-0.011354807764291763,0.004448830150067806,0.0134446570371054
10,0.039078548,-0.011440712958574295,0.004562739282846451,0.012034497320296156
11,0.042813886,-0.011586274951696396,0.004632452502846718,0.011867889818811372
12,0.047561566,-0.011793900281190872,0.004629912786185741,0.013895692761602962
13,0.051501433,-0.011981755495071411,0.004727073945105076,0.014572775860983711
14,0.055741258,-0.012141887098550797,0.004774216562509537,0.014782793551981976
15,0.06030401,-0.01228262484073639,0.0048164064064621925,0.014913460439065274
16,0.064202699,-0.012469232082366943,0.00495094433426857,0.014102014990319933
17,0.067847821,-0.012636210769414902,0.004996374249458313,0.014418500457791028
18,0.072339297,-0.012731753289699554,0.005029685795307159,0.014326286758493456
19,0.076717639,-0.01280428096652031,0.0050017088651657104,0.014700779851011703
20,0.080638622,-0.012964669615030289,0.0050824908539652824,0.015340920535373836
21,0.085009526,-0.01314283162355423,0.005119262263178825,0.015574794867794672
22,0.088356432,-0.013261936604976654,0.00515716802328825,0.015198586027509009
23,0.09332913,-0.013529226183891296,0.0052437689155340195,0.017202594378512792
24,0.097542033,-0.013676565140485764,0.00528188981115818,0.01779122401430322
25,0.101637164,-0.013785630464553833,0.005315152928233147,0.0177392523453217
26,0.105506964,-0.013909604400396347,0.005338134244084358,0.01778566739052634
27,0.109777434,-0.013906490057706833,0.00537758506834507,0.015460483983361195
28,0.114087429,-0.013911765068769455,0.005337484180927277,0.012420772039249295
29,0.11912419,-0.014129772782325745,0.005240218713879585,0.01367976880444055
30,0.122982639,-0.014295283704996109,0.005323014222085476,0.015404366079158294
31,0.126699581,-0.014395926147699356,0.0053542908281087875,0.01617139538547341
32,0.131045541,-0.0144706591963768,0.0054775383323431015,0.014763289575477678
33,0.134927723,-0.01454145833849907,0.0055375657975673676,0.01439865727189149
34,0.139341871,-0.014773070812225342,0.005563361570239067,0.014445681681171774
35,0.144036247,-0.01492956280708313,0.005667475052177906,0.015270898182614845
36,0.147736037,-0.0150814950466156,0.005744686350226402,0.015530763032175043
37,0.15159353,-0.015318144112825394,0.005733296275138855,0.01579762116783412
38,0.155650322,-0.015791110694408417,0.0059532281011343,0.017759307095375654
39,0.15960508,-0.015991508960723877,0.00614171102643013,0.017454628510679582
40,0.163632286,-0.016044892370700836,0.006190537475049496,0.01440759325294838
41,0.168738335,-0.01620141789317131,0.00622890330851078,0.014524265642390954
42,0.172444438,-0.016258198767900467,0.0061947982758283615,0.012808401334089226
43,0.176724282,-0.01646748185157776,0.006166703067719936,0.013375277248177664
44,0.180649187,-0.01674739643931389,0.006220662035048008,0.015288930255448197
45,0.185345056,-0.017019763588905334,0.006318354047834873,0.01807648269071982
46,0.188906395,-0.0169840045273304,0.006452132016420364,0.014492243248123593
47,0.19351515,-0.017139025032520294,0.00652117095887661,0.014080699750899539
48,0.197348182,-0.017215639352798462,0.006686633452773094,0.014173475974683436
49,0.201857593,-0.017368897795677185,0.006762867793440819,0.014652059172352239
50,0.206229695,-0.01777712255716324,0.006882714107632637,0.018619075889995118
51,0.209835828,-0.018070124089717865,0.006907558999955654,0.018875203725897682
52,0.21486378,-0.018001582473516464,0.006890159100294113,0.01563644461091851
53,0.218646906,-0.018068213015794754,0.006901487708091736,0.014251501096936181
54,0.222814867,-0.018407776951789856,0.006994635798037052,0.017449432928342556
55,0.226631252,-0.018601886928081512,0.007097683846950531,0.01747232133651977
56,0.230869367,-0.018755972385406494,0.007148313336074352,0.018148486294220945
57,0.234910652,-0.018784373998641968,0.007117226719856262,0.013788197510354205
58,0.239213397,-0.019030898809432983,0.007249909453094006,0.015645235128348922
59,0.243045404,-0.019143499433994293,0.007353696972131729,0.015419331485728716
60,0.247342768,-0.019231796264648438,0.0073379045352339745,0.015544463664416641
61,0.25148558,-0.019211776554584503,0.007295984774827957,0.014415747609273666
62,0.255585062,-0.01944289356470108,0.007410901598632336,0.017648839985214826
63,0.259916475,-0.019685745239257812,0.007467347197234631,0.02108585957993414
64,0.264227328,-0.01978619024157524,0.007425675168633461,0.019588762949148242
65,0.268208434,-0.019907832145690918,0.007414286956191063,0.020135082271303117
66,0.272470894,-0.020172119140625,0.00756433792412281,0.022385364423867404
67,0.276613812,-0.02038426697254181,0.00762935820966959,0.022274768815319756
68,0.280641838,-0.02046879380941391,0.007551895454525948,0.020352405964075837
69,0.285095955,-0.020825639367103577,0.007744883187115192,0.02247896609785638
70,0.288838502,-0.02106848731637001,0.007870150730013847,0.022646815810323906
71,0.293177517,-0.02093217894434929,0.007722288370132446,0.020138466072148642
72,0.297516941,-0.02099955454468727,0.007819224148988724,0.021031691683914833
73,0.301519075,-0.02157667651772499,0.00806225836277008,0.023985914956095478
74,0.306197601,-0.021834857761859894,0.008225888013839722,0.024399254240998758
75,0.310385498,-0.02201806753873825,0.008234826847910881,0.02426538791457622
76,0.313848361,-0.02204390987753868,0.008184526115655899,0.022983641050814185
77,0.317650344,-0.022144325077533722,0.008137810043990612,0.021389810818285948
78,0.323016628,-0.02223336696624756,0.008146751672029495,0.020233696014063884
79,0.326573587,-0.022500183433294296,0.008278929628431797,0.021871629928675418
80,0.330873806,-0.022800154983997345,0.008414194919168949,0.02548809114018269
81,0.334823545,-0.02310764789581299,0.008502455428242683,0.027458896744605443
82,0.339389341,-0.023387379944324493,0.008617211133241653,0.02883830858856551
83,0.343199066,-0.02351704239845276,0.008667889051139355,0.02736175909787497
84,0.347519131,-0.023485567420721054,0.008688556961715221,0.02388425480240941
85,0.351687621,-0.023590348660945892,0.008750270120799541,0.02372600526213664
86,0.355791199,-0.02375078946352005,0.008802252821624279,0.023885676721308036
87,0.359816684,-0.024010013788938522,0.008774285204708576,0.02585483365707697
88,0.364579937,-0.024212755262851715,0.00881014671176672,0.02567763502592757
89,0.367696582,-0.0243222638964653,0.008691314607858658,0.021411257918587445
90,0.37258727,-0.024413764476776123,0.008676583878695965,0.0214361446783482
91,0.376159823,-0.024661820381879807,0.008920648135244846,0.022410002241809
92,0.380312662,-0.024831190705299377,0.008934595622122288,0.02345209843507523
93,0.385063637,-0.025035884231328964,0.00899793952703476,0.02146150013700443
94,0.388887069,-0.025255393236875534,0.009035349823534489,0.020016818007548842
95,0.393246667,-0.025236252695322037,0.009017590433359146,0.020620911261867603
96,0.397450243,-0.025405168533325195,0.009137834422290325,0.022928813656012403
97,0.401963122,-0.025631241500377655,0.009119601920247078,0.02537756613531683
98,0.406046764,-0.02583003044128418,0.009207984432578087,0.024409001629509985
99,0.409805903,-0.0260322168469429,0.009295709431171417,0.022316416170596654
100,0.414765451,-0.02600574493408203,0.009294217452406883,0.022588258496050173
101,0.418469041,-0.026326525956392288,0.009529508650302887,0.022461978279799677
102,0.422455923,-0.026567712426185608,0.00953000783920288,0.02369226967558813
103,0.426469657,-0.026683002710342407,0.0095679871737957,0.023097467654582093
104,0.430870007,-0.02694552391767502,0.009540582075715065,0.024452412493521924
105,0.43476521,-0.026992183178663254,0.00956733338534832,0.022364796067178894
106,0.438524632,-0.027157172560691833,0.009680714458227158,0.02341018551700369
107,0.443084496,-0.027418728917837143,0.00976887857541442,0.025682462580377097
108,0.44742533,-0.027552369982004166,0.009850037284195423,0.02584604329886786
109,0.451764102,-0.0277729295194149,0.009849178604781628,0.02707343973431331
110,0.455556823,-0.027925163507461548,0.009951170533895493,0.02720827393342007
111,0.460485993,-0.028017602860927582,0.00998346321284771,0.025241004452786875
112,0.463740501,-0.028217405080795288,0.009986652992665768,0.025935223900612314
113,0.467756901,-0.028356075286865234,0.010061907581984997,0.025385157369442357
114,0.472211715,-0.02859272062778473,0.010096804238855839,0.026414429116339955
115,0.476281791,-0.028686344623565674,0.010167503729462624,0.024940766340203924
116,0.480507201,-0.02893778309226036,0.01021193340420723,0.025995270311255814
117,0.484539494,-0.029171530157327652,0.01019308716058731,0.026842923315643974
118,0.488940856,-0.02928117662668228,0.010287919081747532,0.02549081621801874
119,0.493514362,-0.02945205569267273,0.010199528187513351,0.023707215064036058
120,0.497597189,-0.02962590754032135,0.010129926260560751,0.024942843643247725
121,0.501476386,-0.029806803911924362,0.010135550983250141,0.025575283693301865
122,0.50533001,-0.02987569570541382,0.010322373360395432,0.024390563813243782
123,0.509470588,-0.030057553201913834,0.010341089684516191,0.025685412434430566
124,0.514794307,-0.030171044170856476,0.010495967231690884,0.025138607514994638
125,0.517615924,-0.030398350208997726,0.010433481074869633,0.02670130052082409
126,0.522746401,-0.03052191436290741,0.010523841250687838,0.02603423355911394
127,0.526763464,-0.03068201243877411,0.010549816768616438,0.026765085765231955
128,0.530773593,-0.030978858470916748,0.010464834980666637,0.029304024531525474
129,0.534783888,-0.03138704597949982,0.010728084947913885,0.030958635762239117
130,0.538769693,-0.031731754541397095,0.010651122778654099,0.03223016971592574
131,0.5429129,-0.031927671283483505,0.01072626793757081,0.03091428640925531
132,0.547054751,-0.032092541456222534,0.010830671526491642,0.030959037899948916
133,0.552118757,-0.03224780783057213,0.01094746170565486,0.029593702874098016
134,0.555569659,-0.032385364174842834,0.011223340407013893,0.02712462663799342
135,0.560050597,-0.03261746093630791,0.011227162554860115,0.028520370063535916
136,0.563624013,-0.03278740867972374,0.011280051432549953,0.028719751096342838
137,0.567892926,-0.033096879720687866,0.011179337743669748,0.03186022337800254
138,0.572136653,-0.033265646547079086,0.01127637643367052,0.03334611201220894
139,0.576188469,-0.03346749022603035,0.011335344053804874,0.0340239024593092
140,0.580584356,-0.03364170715212822,0.011532401666045189,0.03160248857563186
141,0.585139655,-0.0337882936000824,0.011653868481516838,0.030859974315845307
142,0.589236788,-0.03398050367832184,0.011627739295363426,0.031787231180055775
143,0.593105435,-0.03420417383313179,0.011678846552968025,0.03148615349020312
144,0.597169956,-0.034419506788253784,0.01174750691279769,0.03102524978870025
145,0.601181379,-0.034604206681251526,0.011797978542745113,0.03133408773943369
146,0.605366408,-0.03473983705043793,0.01178414560854435,0.03169839009184483
147,0.609515489,-0.03508453816175461,0.011802619323134422,0.028767357261832105
148,0.614432527,-0.03530508279800415,0.011913419235497713,0.02807727018267525
149,0.618129928,-0.03539685532450676,0.011891819071024656,0.030697752296740655
150,0.622499591,-0.03560037538409233,0.011962847784161568,0.030777297433419948
151,0.626557594,-0.03575485944747925,0.012043274473398924,0.02990720700431071
152,0.630503498,-0.035926103591918945,0.012069583870470524,0.03075738380493709
153,0.634442816,-0.03603515774011612,0.012163529172539711,0.03242958772299187
154,0.639779175,-0.036192648112773895,0.012234910391271114,0.03282303454105673
155,0.643270657,-0.03633793815970421,0.012299032416194677,0.03200957820721406
156,0.647393369,-0.03653709590435028,0.012338615488260984,0.03240594816150777
157,0.651651924,-0.03669014200568199,0.012364007998257875,0.032594843661378325
158,0.655908287,-0.03685538098216057,0.012432668823748827,0.03223208300998115
159,0.659659914,-0.03702907636761665,0.01247804518789053,0.0322843977089009
160,0.663517568,-0.03721226006746292,0.012512476183474064,0.032153471691433566
161,0.667609539,-0.03737349435687065,0.012579397298395634,0.03188464580550754
162,0.671963757,-0.03757092542946339,0.012598337605595589,0.03223244385641699
163,0.676299761,-0.037767987698316574,0.012660326901823282,0.03265374300691848
164,0.680940622,-0.038022033870220184,0.012915863655507565,0.03439472236034513
165,0.684273883,-0.038229115307331085,0.012976680416613817,0.03526143697037187
166,0.689351702,-0.03841261379420757,0.013003071304410696,0.03535694038824544
167,0.69333328,-0.038542404770851135,0.012993366457521915,0.033191664325029624
168,0.69758127,-0.038727544248104095,0.01298768911510706,0.03374944074549546
169,0.701377091,-0.038949618116021156,0.013033254072070122,0.03365715470403052
170,0.706089602,-0.03915242478251457,0.01307701226323843,0.03312869111471839
171,0.709818465,-0.039347488433122635,0.013167582917958498,0.03311842143262189
172,0.714194644,-0.03955686092376709,0.013203729875385761,0.03389366174748387
173,0.717935621,-0.03978582285344601,0.013349516782909632,0.0336844306519275
174,0.722460106,-0.040006598457694054,0.01346610113978386,0.03540752422688098
175,0.726598767,-0.0402178019285202,0.013524068985134363,0.036019612346771535
176,0.730927905,-0.04046724550426006,0.013444016687572002,0.034991507523401744
177,0.734761978,-0.040693892166018486,0.013455663342028856,0.03519137937122485
178,0.739237956,-0.040919650346040726,0.013503520749509335,0.03533077048480182
179,0.743399787,-0.041112784296274185,0.013700950192287564,0.033761937721206614
180,0.747319914,-0.04130034148693085,0.013703950215131044,0.03448479800990856
181,0.751822213,-0.04147940315306187,0.013739415910094976,0.03495340390393298
182,0.757305992,-0.04164792597293854,0.013856756733730435,0.03393508951854751
183,0.759847996,-0.041886402294039726,0.013841545209288597,0.03433785496784192
184,0.764142002,-0.04208739846944809,0.013868542155250907,0.03451855283030092
185,0.767559223,-0.04223054461181164,0.01390330446884036,0.03542687164689973
186,0.77236008,-0.042416658252477646,0.01391155575402081,0.03631653652517852
187,0.776861205,-0.04259939305484295,0.014007039600983262,0.03544134599659521
188,0.780970505,-0.04275551810860634,0.014136480633169413,0.03487726329899221
189,0.785536099,-0.042971739545464516,0.014083881163969636,0.036179127842190795
190,0.788944509,-0.043167781084775925,0.014120439998805523,0.03664356414324499
191,0.793120408,-0.043398499488830566,0.01425987877883017,0.03680233080191453
192,0.797629068,-0.043624147772789,0.014293841319158673,0.03788673063042891
193,0.801822374,-0.0438583679497242,0.014307738747447729,0.03807013758608613
194,0.805780061,-0.04400479979813099,0.014426912181079388,0.03657950080004735
195,0.809756299,-0.04423133842647076,0.014423706103116274,0.037253955180964304
196,0.814375967,-0.04439929313957691,0.014496477786451578,0.03704232740558533
197,0.818440815,-0.044561898335814476,0.01452593132853508,0.03742997465415132
198,0.822662696,-0.04478688910603523,0.014576584566384554,0.03746973580273849
199,0.82655683,-0.04499135538935661,0.014678443782031536,0.036725305714000456
200,0.830645007,-0.04516140557825565,0.014707435853779316,0.0386541427780962
201,0.83489907,-0.045373618602752686,0.014758078614249825,0.038579677671881196
202,0.840362819,-0.04554874263703823,0.014836174668744206,0.038179207017994043
203,0.844268283,-0.04575725458562374,0.014833643101155758,0.03842630445672479
204,0.847607542,-0.046000707894563675,0.01476307213306427,0.03703309802724619
205,0.851545241,-0.046191319823265076,0.014907826203852892,0.03587582927621735
206,0.856158609,-0.04644457995891571,0.014937579166144133,0.03825290812680393
207,0.859696557,-0.04648020677268505,0.014932086924090981,0.033822282359105005
208,0.863915585,-0.04665504954755306,0.015022334875538945,0.03556825657384932
209,0.867885751,-0.0469354223459959,0.015107061248272657,0.03770059150259475
210,0.872022016,-0.04718009755015373,0.01521846791729331,0.03756720582845263
211,0.876664199,-0.047253239899873734,0.01515095867216587,0.035737159538667074
212,0.880842134,-0.04750548489391804,0.01526115508750081,0.037780379029033195
213,0.884974203,-0.04772859998047352,0.015401871409267187,0.03899455171287247
214,0.888944481,-0.04793466068804264,0.015412538312375546,0.03874570764940599
215,0.893266565,-0.04809504747390747,0.015495160827413201,0.03848322172995622
216,0.897538142,-0.04833507165312767,0.01549525186419487,0.04046205744792242
217,0.901435077,-0.04856979660689831,0.015513505786657333,0.03979539439974866
218,0.905876348,-0.04873552732169628,0.015549599193036556,0.04074542259638192
219,0.910151526,-0.049052588641643524,0.015591019298881292,0.04225048624415639
220,0.914080175,-0.049198878929018974,0.015561528271064162,0.04101331494365712
221,0.917651057,-0.04932224564254284,0.01569678890518844,0.04120129254112981
222,0.923265352,-0.0494360513985157,0.015692677698098123,0.039767516719118046
223,0.926569181,-0.04960135743021965,0.015785139985382557,0.03936589100761001
224,0.930450419,-0.05002302676439285,0.015871095121838152,0.04223169263859816
225,0.934780841,-0.05021154507994652,0.01586998184211552,0.0428378136402594
226,0.939287237,-0.050433199852705,0.01602390338666737,0.042720544567875995
227,0.943152692,-0.05057038180530071,0.015976714668795466,0.041821826057387934
228,0.947147241,-0.05075749568641186,0.016033389372751117,0.04227567769202123
229,0.951732866,-0.050823044031858444,0.015995107358321548,0.03956725259340388
230,0.955747002,-0.051217492669820786,0.015855376259423792,0.04044020931694514
231,0.960091695,-0.05149850621819496,0.016034378670156002,0.0411787461160904
232,0.964287971,-0.05161390267312527,0.01593595463782549,0.0385603206715468
233,0.96866348,-0.05193229950964451,0.016164155676960945,0.03845613281994864
234,0.972382093,-0.05212491378188133,0.01623372081667185,0.0408257703480468
235,0.976717722,-0.05240045301616192,0.016290750354528427,0.04432974665656064
236,0.980499126,-0.05243060179054737,0.016283076256513596,0.039987319838513224
237,0.985109045,-0.052660614252090454,0.016379595501348376,0.0402965898141574
238,0.990916093,-0.05286347679793835,0.016465844586491585,0.04175627326699871
239,0.993506933,-0.05317123234272003,0.016576325055211782,0.0446638358717768
240,0.997611309,-0.053304387256503105,0.016500841826200485,0.043993815097208566
241,1.002059472,-0.05338782258331776,0.016605830052867532,0.0418889994875562
242,1.006182984,-0.053631216287612915,0.01666351268067956,0.042953854928456714
243,1.010026303,-0.05387866869568825,0.016711097676306963,0.04335793450521952
244,1.014447091,-0.05408575385808945,0.016749466536566615,0.044875855359472805
245,1.018446294,-0.054373281076550484,0.016850604210048914,0.04643302284248296
246,1.022673805,-0.054457589983940125,0.01681727182585746,0.04363525978899596
247,1.0266228,-0.05458951275795698,0.016862524673342705,0.04322298711716721
248,1.030718241,-0.05473923124372959,0.017098938580602407,0.043240076029716246
249,1.034997127,-0.055056020617485046,0.017121228855103254,0.04499078546598989
250,1.038780467,-0.05523689091205597,0.017152439337223768,0.044844098040354385
251,1.043209569,-0.05543741211295128,0.017178339883685112,0.04501332591340579
252,1.047538503,-0.05568686593323946,0.01721586985513568,0.04511872878316581
253,1.051739335,-0.05591251142323017,0.017284328117966652,0.04616664336258358
254,1.055731576,-0.056087673641741276,0.01730553200468421,0.044949352333347514
