,time,x,y,theta
0,1.6698213000082947e+18,0.006312839686870575,-0.07966955658048391,-0.9760814640902178
1,1.669821300012717e+18,0.0067692287266254425,-0.0793363293632865,-0.9956089356378484
2,1.6698213000166108e+18,0.0070572346448898315,-0.07892570551484823,-1.0149002084413603
3,1.6698213000205117e+18,0.007604561746120453,-0.07876285072416067,-1.0317602966944421
4,1.6698213000250063e+18,0.007983297109603882,-0.07854077871888876,-1.0474309331808715
5,1.669821300028709e+18,0.008451186120510101,-0.0781555837020278,-1.0655944894475735
6,1.6698213000330353e+18,0.008700940757989883,-0.07777983602136374,-1.082387426880563
7,1.6698213000372943e+18,0.00912027433514595,-0.0775783946737647,-1.0985715687187758
8,1.6698213000415857e+18,0.009445976465940475,-0.07737076189368963,-1.1146936725730514
9,1.6698213000455473e+18,0.00982847809791565,-0.07709525432437658,-1.1315691667747347
10,1.6698213000500275e+18,0.010230939835309982,-0.07684466149657965,-1.1493601251579466
11,1.6698213000539912e+18,0.010665997862815857,-0.07662310358136892,-1.167537172104872
12,1.669821300058105e+18,0.0108652263879776,-0.07625874783843756,-1.1861753129592525
13,1.6698213000617649e+18,0.011213164776563644,-0.07598426472395658,-1.2035453513885632
14,1.6698213000657615e+18,0.011760793626308441,-0.0757243437692523,-1.220903720540551
15,1.6698213000701455e+18,0.012247998267412186,-0.07551370095461607,-1.2369594860154467
16,1.6698213000750543e+18,0.012876801192760468,-0.07527615781873465,-1.257755301533808
17,1.669821300078761e+18,0.013105042278766632,-0.07499407138675451,-1.2744192579503875
18,1.6698213000832415e+18,0.013109348714351654,-0.07470885571092367,-1.292898272124721
19,1.6698213000870817e+18,0.013479292392730713,-0.07432790752500296,-1.310695116692742
20,1.6698213000916332e+18,0.013798646628856659,-0.07401865255087614,-1.3299587214118744
21,1.6698213000954703e+18,0.014099977910518646,-0.07380093168467283,-1.3492791502311687
22,1.6698213000989578e+18,0.014294110238552094,-0.07361031230539083,-1.3658481840069716
23,1.6698213001037286e+18,0.014909185469150543,-0.07327411975711584,-1.3822438462318547
24,1.6698213001079462e+18,0.015228793025016785,-0.07276066672056913,-1.3978313384661976
25,1.6698213001122936e+18,0.015590764582157135,-0.0725456615909934,-1.4139884949017463
26,1.6698213001162324e+18,0.0160391703248024,-0.07245718222111464,-1.431870335368775
27,1.6698213001208934e+18,0.016223669052124023,-0.07199645321816206,-1.448485525005282
28,1.6698213001244052e+18,0.0167577862739563,-0.07185813691467047,-1.465583562579381
29,1.669821300128827e+18,0.017224416136741638,-0.07140619214624166,-1.4787151219067605
30,1.6698213001328259e+18,0.01764630526304245,-0.07143432181328535,-1.4950630132563698
31,1.6698213001379533e+18,0.01801227033138275,-0.07125005777925253,-1.509411263228729
32,1.6698213001414077e+18,0.018409758806228638,-0.07114667724817991,-1.5245232544032932
33,1.6698213001454866e+18,0.018727608025074005,-0.07118948083370924,-1.537426948800976
34,1.6698213001494285e+18,0.019083522260189056,-0.07112318184226751,-1.5480808494019596
35,1.6698213001533376e+18,0.01948092132806778,-0.07095942925661802,-1.5615702293873612
36,1.669821300157575e+18,0.0197417214512825,-0.07084938045591116,-1.5741502572798838
37,1.669821300161837e+18,0.02009408175945282,-0.07085720356553793,-1.5866347168686876
38,1.669821300166259e+18,0.02029234915971756,-0.07049910631030798,-1.59956215938212
39,1.6698213001706573e+18,0.020708955824375153,-0.0705581633374095,-1.6147180705399784
40,1.669821300179309e+18,0.020865008234977722,-0.07033806946128607,-1.6273937796119353
41,1.6698213001796047e+18,0.02120024710893631,-0.07021184917539358,-1.6400304453685133
42,1.6698213001826708e+18,0.02158667892217636,-0.0700991926714778,-1.653527464452553
43,1.6698213001869105e+18,0.021878957748413086,-0.06978643592447042,-1.6683461186396464
44,1.669821300190932e+18,0.022198669612407684,-0.06969150435179472,-1.6785923528524864
45,1.669821300195209e+18,0.022447355091571808,-0.0696048280224204,-1.6877832854619008
46,1.6698213002000102e+18,0.02259514480829239,-0.06948836054652929,-1.69686637560908
47,1.669821300203906e+18,0.02304758131504059,-0.06953237857669592,-1.702678857037354
48,1.669821300208153e+18,0.02325405925512314,-0.06934999581426382,-1.711263248560252
49,1.6698213002119624e+18,0.0234735906124115,-0.06942643504589796,-1.7164453016318848
50,1.6698213002159647e+18,0.023844800889492035,-0.0691015338525176,-1.7251463664322713
51,1.66982130021928e+18,0.024253807961940765,-0.06905733328312635,-1.728900550092758
52,1.6698213002244257e+18,0.024393662810325623,-0.06892023887485266,-1.7344354914590827
53,1.669821300229293e+18,0.024682484567165375,-0.06882105302065611,-1.7368143823806133
54,1.669821300233122e+18,0.02490212768316269,-0.06876939814537764,-1.7380522666509044
55,1.6698213002372436e+18,0.025267653167247772,-0.0686600087210536,-1.7375994556777283
56,1.6698213002413048e+18,0.025437727570533752,-0.06853460427373648,-1.7358629950777364
57,1.669821300245654e+18,0.02557339519262314,-0.06835249345749617,-1.7337424967805786
58,1.6698213002500173e+18,0.02588079124689102,-0.06818225886672735,-1.7307055166690655
59,1.6698213002548065e+18,0.02624613791704178,-0.06812409218400717,-1.7243512065118103
60,1.669821300257896e+18,0.0264616459608078,-0.06802441086620092,-1.7175095150263002
61,1.6698213002621184e+18,0.026299990713596344,-0.06772634666413069,-1.7131817347413119
62,1.6698213002666465e+18,0.026479072868824005,-0.06778894271701574,-1.7045355968228297
63,1.6698213002706967e+18,0.02637055516242981,-0.06767089944332838,-1.6952949424556576
64,1.6698213002755684e+18,0.026266761124134064,-0.06763226073235273,-1.6835197495192347
65,1.669821300279251e+18,0.026415616273880005,-0.06754743587225676,-1.6705174758461752
66,1.669821300283095e+18,0.026446588337421417,-0.06721099000424147,-1.6562357461681325
67,1.6698213002876045e+18,0.026779107749462128,-0.06732870917767286,-1.644284505939922
68,1.669821300291278e+18,0.026640363037586212,-0.06690432410687208,-1.6269122739755317
69,1.669821300295246e+18,0.026780493557453156,-0.06676891352981329,-1.6125581230387547
70,1.6698213002993014e+18,0.026967793703079224,-0.06683498900383711,-1.5978129167596513
71,1.6698213003038408e+18,0.027039572596549988,-0.06677579041570425,-1.5828544022135238
72,1.669821300308485e+18,0.02706504613161087,-0.06651807855814695,-1.5659384266638063
73,1.6698213003121546e+18,0.027024731040000916,-0.06644855346530676,-1.5533692926755465
74,1.6698213003163896e+18,0.027176707983016968,-0.06631607469171286,-1.5352961951464679
75,1.6698213003204285e+18,0.027377918362617493,-0.06611142586916685,-1.519078015471456
76,1.6698213003247716e+18,0.027353160083293915,-0.06598279159516096,-1.5025280511128538
77,1.66982130032854e+18,0.02759745717048645,-0.06593923177570105,-1.4808212756406764
78,1.6698213003326866e+18,0.02760651707649231,-0.06596952583640814,-1.4638398370578896
79,1.669821300337669e+18,0.027460701763629913,-0.06573495175689459,-1.445168276326241
80,1.6698213003410995e+18,0.0276125967502594,-0.06575572770088911,-1.424254177499014
81,1.6698213003457513e+18,0.027571924030780792,-0.0655602989718318,-1.4085566363071518
82,1.6698213003492938e+18,0.02765103429555893,-0.06542666908353567,-1.389510560793033
83,1.6698213003535857e+18,0.027619987726211548,-0.06535109784454107,-1.3698199350056406
84,1.6698213003577144e+18,0.027563132345676422,-0.06514796521514654,-1.3497680866760837
85,1.6698213003610138e+18,0.027582824230194092,-0.06492081191390753,-1.3292775936854913
86,1.669821300366868e+18,0.027725405991077423,-0.0647547272965312,-1.3065816880385266
87,1.6698213003706353e+18,0.028107374906539917,-0.0646142503246665,-1.2857526212356725
88,1.6698213003749238e+18,0.027971021831035614,-0.06427585985511541,-1.261116008487004
89,1.6698213003788508e+18,0.02800247073173523,-0.0639074994251132,-1.2387939942095492
90,1.6698213003826732e+18,0.02802644670009613,-0.06404697056859732,-1.2150003374760514
91,1.6698213003869215e+18,0.027997568249702454,-0.06382645200937986,-1.1902398007022483
92,1.6698213003908677e+18,0.02794661372900009,-0.06352873798459768,-1.167953139529597
93,1.669821300395319e+18,0.02803903818130493,-0.06334602739661932,-1.1461424850065565
94,1.6698213003998052e+18,0.027946077287197113,-0.06310309376567602,-1.123921685819858
95,1.6698213004040123e+18,0.027945488691329956,-0.06284944247454405,-1.1017567098864627
96,1.6698213004078717e+18,0.02779490500688553,-0.06257146131247282,-1.075319010437575
97,1.66982130041297e+18,0.027850784361362457,-0.06254880409687757,-1.0505197490132152
98,1.6698213004163456e+18,0.02781239151954651,-0.06223130878061056,-1.026575513619552
99,1.6698213004203948e+18,0.027793236076831818,-0.0620793467387557,-0.9999348993025613
100,1.6698213004244188e+18,0.02763397991657257,-0.06193770747631788,-0.9736164197364516
101,1.6698213004283697e+18,0.027465075254440308,-0.061555019579827785,-0.9462989697452051
102,1.6698213004326193e+18,0.02730279415845871,-0.061273219995200634,-0.9199017978589825
103,1.6698213004366973e+18,0.02717433124780655,-0.06112810876220465,-0.8925291738105545
104,1.669821300441017e+18,0.027282103896141052,-0.06084797065705061,-0.866237293387891
105,1.669821300445758e+18,0.02706769108772278,-0.06042821239680052,-0.8358178494354045
106,1.669821300448776e+18,0.027138985693454742,-0.060297644697129726,-0.8079204181524126
107,1.6698213004541317e+18,0.026665017008781433,-0.05984254088252783,-0.7752278328888306
108,1.6698213004583196e+18,0.026349283754825592,-0.05942858289927244,-0.745600848687808
109,1.6698213004620933e+18,0.026077985763549805,-0.05903033819049597,-0.7167136147907922
110,1.6698213004666345e+18,0.025982633233070374,-0.05872347857803106,-0.6887945827542127
111,1.6698213004710205e+18,0.025648169219493866,-0.058470758609473705,-0.6568002771181527
112,1.6698213004750953e+18,0.02530321478843689,-0.05798024218529463,-0.6288212918054368
113,1.6698213004789967e+18,0.024940364062786102,-0.057256254367530346,-0.5996247849139789
114,1.6698213004833034e+18,0.024782583117485046,-0.056742618791759014,-0.5700824791607497
115,1.66982130048839e+18,0.024607285857200623,-0.0562674505636096,-0.5402532680554339
116,1.6698213004923937e+18,0.024432867765426636,-0.05588031467050314,-0.508512071948626
117,1.669821300496471e+18,0.024206548929214478,-0.05542543809860945,-0.4776454142263433
118,1.6698213005003315e+18,0.023915715515613556,-0.05484022479504347,-0.44685352503431464
119,1.66982130050452e+18,0.023619674146175385,-0.05441205482929945,-0.4167186665153091
120,1.6698213005080527e+18,0.023523956537246704,-0.054038907401263714,-0.38419596371674936
121,1.6698213005125688e+18,0.023230470716953278,-0.053524347953498363,-0.3518506803900916
122,1.6698213005161733e+18,0.02261260896921158,-0.05293931346386671,-0.32031224022401017
123,1.6698213005210368e+18,0.022311538457870483,-0.05235277395695448,-0.2838411166109447
124,1.6698213005250962e+18,0.022128768265247345,-0.05184600781649351,-0.25244749688749946
125,1.6698213005289981e+18,0.021654173731803894,-0.051075841300189495,-0.22204292972986028
126,1.6698213005327273e+18,0.021337442100048065,-0.050636167638003826,-0.18701026393824072
127,1.669821300537447e+18,0.021006278693675995,-0.05010708328336477,-0.15227504603986075
128,1.6698213005414228e+18,0.0207521989941597,-0.049776564352214336,-0.11693347621945294
129,1.6698213005454326e+18,0.020412936806678772,-0.04915120359510183,-0.08323387126622417
130,1.6698213005497528e+18,0.020021498203277588,-0.04859682824462652,-0.05056464099794011
131,1.6698213005541548e+18,0.019643038511276245,-0.048334731720387936,-0.019702302827037554
132,1.6698213005588116e+18,0.01894635707139969,-0.04763051029294729,0.011768939574738235
133,1.669821300562699e+18,0.01856057345867157,-0.04738499131053686,0.050859260454814814
134,1.6698213005679199e+18,0.018169470131397247,-0.04692120011895895,0.08904860208817578
135,1.6698213005704968e+18,0.017599523067474365,-0.046452044509351254,0.12393902993652306
136,1.669821300575917e+18,0.017223961651325226,-0.04590714816004038,0.15331896369793552
137,1.6698213005790991e+18,0.01675182580947876,-0.045420472510159016,0.1872945275847
138,1.6698213005837885e+18,0.016391314566135406,-0.045107183046638966,0.219314442942095
139,1.669821300588081e+18,0.01603928953409195,-0.04458420258015394,0.2514778105663362
140,1.6698213005915935e+18,0.015461333096027374,-0.044089741073548794,0.2818104759164497
141,1.6698213005962074e+18,0.014980822801589966,-0.04374103341251612,0.3166561434077104
142,1.669821300598945e+18,0.014561936259269714,-0.04324230831116438,0.3536165271708096
143,1.669821300603669e+18,0.014255791902542114,-0.04268937837332487,0.3922318585972888
144,1.6698213006076913e+18,0.013715200126171112,-0.042225188575685024,0.425142502317575
145,1.66982130061212e+18,0.013099290430545807,-0.0417171036824584,0.46080002298881984
146,1.6698213006166008e+18,0.012853756546974182,-0.04141588415950537,0.49753765001335215
147,1.6698213006205286e+18,0.012572742998600006,-0.0409770468249917,0.5299853609640246
148,1.6698213006247657e+18,0.012247677892446518,-0.04048325028270483,0.5633041054292984
149,1.669821300629162e+18,0.011597700417041779,-0.040015934966504574,0.5958614974126528
150,1.6698213006327795e+18,0.011209405958652496,-0.039397369138896465,0.6271456631887429
151,1.6698213006373711e+18,0.010444603860378265,-0.038919235579669476,0.6618713570362622
152,1.669821300641116e+18,0.009646225720643997,-0.03851065319031477,0.6940885245725446
153,1.6698213006458452e+18,0.008910749107599258,-0.03809631522744894,0.7293425959705904
154,1.6698213006490742e+18,0.008279390633106232,-0.037671604193747044,0.7651209612234269
155,1.6698213006535872e+18,0.007936839014291763,-0.037261019460856915,0.8008335274604665
156,1.6698213006584212e+18,0.00711711123585701,-0.03685773443430662,0.8323090590499798
157,1.6698213006621606e+18,0.006600629538297653,-0.03644054848700762,0.8637391070700271
158,1.6698213006663206e+18,0.005964096635580063,-0.03590945992618799,0.8998671412712589
159,1.669821300671288e+18,0.0054052285850048065,-0.035211590118706226,0.9334488191524277
160,1.669821300674852e+18,0.004653368145227432,-0.03458415251225233,0.969902010028697
161,1.6698213006789737e+18,0.003931395709514618,-0.034115116111934185,1.0038577604649424
162,1.6698213006831073e+18,0.003279171884059906,-0.03377100732177496,1.0378916848339117
163,1.6698213006874916e+18,0.0025069378316402435,-0.033235217444598675,1.0767578223186745
164,1.6698213006912435e+18,0.0018289312720298767,-0.03280212823301554,1.1075641771504598
165,1.6698213006951844e+18,0.0011066645383834839,-0.03267648909240961,1.1394608158949266
166,1.669821300698948e+18,0.00022830814123153687,-0.03221509698778391,1.1741650809916166
167,1.6698213007037542e+18,-0.00015085935592651367,-0.03179167676717043,1.2126784375842223
168,1.6698213007082166e+18,-0.0005598589777946472,-0.03142461646348238,1.2494082213240951
169,1.6698213007122557e+18,-0.0009912624955177307,-0.03102580364793539,1.2854588591734448
170,1.6698213007163151e+18,-0.0017889291048049927,-0.030632606707513332,1.3165640377395833
171,1.6698213007218575e+18,-0.0023500509560108185,-0.030510825105011463,1.3481268712125358
172,1.6698213007244508e+18,-0.0030732303857803345,-0.03021469060331583,1.3767190181112474
173,1.6698213007287867e+18,-0.003915637731552124,-0.029717343859374523,1.407797520304331
174,1.669821300732683e+18,-0.004250984638929367,-0.029647461138665676,1.437562162976844
175,1.6698213007373325e+18,-0.004695381969213486,-0.029396075755357742,1.4670569415594563
176,1.6698213007414198e+18,-0.005142059177160263,-0.02909765299409628,1.4939026972345617
177,1.6698213007455117e+18,-0.005445193499326706,-0.028721250593662262,1.5223803336189654
178,1.669821300749006e+18,-0.0058313533663749695,-0.02843176294118166,1.5445500794683946
179,1.6698213007540073e+18,-0.005941607058048248,-0.02825628314167261,1.567424878701237
180,1.6698213007581601e+18,-0.0061991214752197266,-0.0280549144372344,1.5892440537286223
181,1.6698213007619162e+18,-0.006289489567279816,-0.027681860141456127,1.6070976981558536
182,1.6698213007670423e+18,-0.006762232631444931,-0.027368477545678616,1.6236623280043174
183,1.6698213007705925e+18,-0.006581541150808334,-0.027538671158254147,1.6447925720819416
184,1.669821300774979e+18,-0.006645072251558304,-0.027279616333544254,1.6591088781511498
185,1.669821300778502e+18,-0.006560567766427994,-0.027265374548733234,1.6761759344952951
186,1.6698213007831145e+18,-0.006590291857719421,-0.02719456609338522,1.6890227813330387
187,1.6698213007870397e+18,-0.006590943783521652,-0.027173759415745735,1.704501572839579
188,1.6698213007911662e+18,-0.006558064371347427,-0.026892302557826042,1.7158078045419964
189,1.6698213007955965e+18,-0.006596088409423828,-0.0267977612093091,1.728240002890196
190,1.6698213007993423e+18,-0.00672144815325737,-0.026891660876572132,1.7394829160904832
191,1.6698213008041864e+18,-0.006650812923908234,-0.02685724664479494,1.7493107317381345
192,1.6698213008078162e+18,-0.006566435098648071,-0.026755857281386852,1.7582306619930614
193,1.669821300813056e+18,-0.006569132208824158,-0.026873036287724972,1.7681897829386148
194,1.669821300815994e+18,-0.006414782255887985,-0.026698527857661247,1.776822224531446
195,1.669821300819815e+18,-0.006534095853567123,-0.026703443378210068,1.7841291921246176
196,1.6698213008244078e+18,-0.006425298750400543,-0.026674487628042698,1.7911771826117908
197,1.669821300829178e+18,-0.006362982094287872,-0.02664211206138134,1.7994240954352803
198,1.669821300833073e+18,-0.006139248609542847,-0.026831521652638912,1.8104624297790926
199,1.669821300837449e+18,-0.006038397550582886,-0.026803549379110336,1.81783127563717
200,1.6698213008410406e+18,-0.006058014929294586,-0.026747044175863266,1.8223136858267006
201,1.669821300845601e+18,-0.005798380821943283,-0.026761776767671108,1.8285572229295033
202,1.6698213008497938e+18,-0.005703732371330261,-0.026476466096937656,1.8307418250308105
203,1.6698213008536343e+18,-0.005624908953905106,-0.02656683884561062,1.8354068380271658
204,1.6698213008587228e+18,-0.005505125969648361,-0.026417167857289314,1.8369179591591243
205,1.6698213008621463e+18,-0.005362551659345627,-0.02635308913886547,1.8403212350097125
206,1.6698213008666332e+18,-0.005239363759756088,-0.026245920918881893,1.8417177075064162
207,1.6698213008703754e+18,-0.005174778401851654,-0.026076270267367363,1.8405735604907925
208,1.6698213008750172e+18,-0.005133550614118576,-0.02593034040182829,1.8385041862949452
209,1.6698213008786793e+18,-0.005067326128482819,-0.025668906047940254,1.834526859175381
210,1.6698213008827284e+18,-0.005088314414024353,-0.025674798525869846,1.8316134411620872
211,1.6698213008873295e+18,-0.0050479955971241,-0.02563856914639473,1.8294900426908542
212,1.669821300891584e+18,-0.004977274686098099,-0.025327172130346298,1.8225879137323133
213,1.669821300895836e+18,-0.005008667707443237,-0.025258606299757957,1.8157832566682819
214,1.6698213008994304e+18,-0.004987441003322601,-0.025149605236947536,1.8077286947449833
215,1.669821300903638e+18,-0.0049428269267082214,-0.024748818017542362,1.797692109239489
216,1.669821300908145e+18,-0.0049340128898620605,-0.024421085603535175,1.7883299978107026
217,1.669821300912597e+18,-0.004821602255105972,-0.024182302877306938,1.7798946069148416
218,1.669821300916496e+18,-0.004646267741918564,-0.024192294105887413,1.7737481852630745
219,1.6698213009205617e+18,-0.00463123619556427,-0.02402691077440977,1.7630297972583513
220,1.6698213009249385e+18,-0.004654653370380402,-0.02378906961530447,1.750763016531618
221,1.6698213009290688e+18,-0.004503026604652405,-0.02362878993153572,1.7390799702805486
222,1.6698213009329172e+18,-0.004314802587032318,-0.023393929935991764,1.7272572090576128
223,1.669821300937284e+18,-0.004055611789226532,-0.023222540505230427,1.7163121050558185
224,1.6698213009413594e+18,-0.00395580381155014,-0.023030693642795086,1.702131401951636
225,1.6698213009457518e+18,-0.0038259103894233704,-0.022974743507802486,1.6928296274084547
226,1.6698213009495516e+18,-0.0036788806319236755,-0.02273207064718008,1.679997972167583
