,time,x,y,theta
0,1.670504473216465e+18,-0.0002566725015640259,0.00045735761523246765,0.003181655106319514
1,1.670504473220804e+18,-0.00025710463523864746,0.0004704222083091736,0.003483118287878506
2,1.6705044732247112e+18,-0.0002707540988922119,0.00046927109360694885,0.003729960257224052
3,1.6705044732298975e+18,-0.00028152763843536377,0.00048387423157691956,0.0038500668968495244
4,1.6705044732334966e+18,-0.0002841055393218994,0.000497177243232727,0.004158534525687596
5,1.6705044732371958e+18,-0.00029414892196655273,0.0005218721926212311,0.004277003562893178
6,1.670504473241384e+18,-0.00029164552688598633,0.000542711466550827,0.004521783268241597
7,1.6705044732457567e+18,-0.00030077993869781494,0.0005699694156646729,0.00470347525861281
8,1.6705044732499067e+18,-0.00030943751335144043,0.0005930699408054352,0.004952456798842153
9,1.6705044732540122e+18,-0.00032210350036621094,0.0006185881793498993,0.005012126510230086
10,1.670504473258943e+18,-0.0003456622362136841,0.0006329230964183807,0.0052547807225364895
11,1.6705044732627105e+18,-0.00037057697772979736,0.0006481632590293884,0.005316616928525475
12,1.6705044732666404e+18,-0.00040400028228759766,0.0006630010902881622,0.005381903068960137
13,1.67050447327062e+18,-0.00042882561683654785,0.0006771087646484375,0.005262317600673194
14,1.6705044732747983e+18,-0.000453948974609375,0.0006995461881160736,0.005139727762958124
15,1.6705044732789558e+18,-0.0004812479019165039,0.0007085688412189484,0.005022136349640993
16,1.6705044732847007e+18,-0.0005044490098953247,0.0007174201309680939,0.004713467979069019
17,1.6705044732878595e+18,-0.0005315393209457397,0.0007165148854255676,0.004657219438516824
18,1.670504473291395e+18,-0.0005483031272888184,0.0007236115634441376,0.004410555287319484
19,1.6705044732960172e+18,-0.0005592107772827148,0.0007198303937911987,0.004288236628170461
20,1.670504473299997e+18,-0.0005781054496765137,0.0007135570049285889,0.004227878549111441
21,1.6705044733051284e+18,-0.000582277774810791,0.0007038377225399017,0.004169759299996079
22,1.6705044733083123e+18,-0.0006002485752105713,0.0007027685642242432,0.004043687194450474
23,1.670504473312784e+18,-0.0006139129400253296,0.0007101893424987793,0.003919300958550087
24,1.67050447331669e+18,-0.0006379038095474243,0.0006584934890270233,0.003726150581461196
25,1.6705044733216443e+18,-0.0006285160779953003,0.0007114596664905548,0.0038529632110795298
26,1.6705044733249672e+18,-0.0006385445594787598,0.000693880021572113,0.00429065255422767
27,1.6705044733295388e+18,-0.0006619244813919067,0.0006755031645298004,0.0039051304920936225
28,1.6705044733329426e+18,-0.0006533712148666382,0.000718977302312851,0.004405819121042764
29,1.670504473337174e+18,-0.0006523430347442627,0.0007243826985359192,0.004845066835842182
30,1.6705044733416253e+18,-0.0006475150585174561,0.0007447078824043274,0.004594640645954273
31,1.6705044733454356e+18,-0.0006366521120071411,0.0007665716111660004,0.004532348284501664
32,1.670504473350705e+18,-0.0006388574838638306,0.0007894039154052734,0.004590025283730759
33,1.6705044733543089e+18,-0.0006315857172012329,0.0008149668574333191,0.004772131547145397
34,1.670504473358621e+18,-0.0006192028522491455,0.00083903968334198,0.00483339175722719
35,1.6705044733627558e+18,-0.0006108880043029785,0.0008599571883678436,0.004954779218813821
36,1.6705044733676012e+18,-0.0006062984466552734,0.0008811056613922119,0.005079156043005462
37,1.6705044733708887e+18,-0.0006022900342941284,0.0009036697447299957,0.00520266239755629
38,1.6705044733750618e+18,-0.0005907565355300903,0.0009244270622730255,0.005384751057466497
39,1.6705044733792026e+18,-0.0005902498960494995,0.0009486563503742218,0.005570907585429552
40,1.6705044733838252e+18,-0.0005777329206466675,0.0009612925350666046,0.005693367390875448
41,1.6705044733876383e+18,-0.0005765408277511597,0.0009745322167873383,0.005751367839477606
42,1.6705044733920765e+18,-0.0005682706832885742,0.0010013207793235779,0.005992869234141995
43,1.6705044733960904e+18,-0.0005643069744110107,0.0010291822254657745,0.00611177164477672
44,1.6705044734000893e+18,-0.000568881630897522,0.0010433271527290344,0.006479015230872687
45,1.6705044734043548e+18,-0.0005717426538467407,0.0010644011199474335,0.006660775953200693
46,1.6705044734082204e+18,-0.0005669593811035156,0.0010862722992897034,0.006838821935575057
47,1.6705044734131927e+18,-0.0005610287189483643,0.0010944493114948273,0.007084980258729168
48,1.6705044734167977e+18,-0.0005539953708648682,0.0011099986732006073,0.007449350613774941
49,1.6705044734209856e+18,-0.0005472153425216675,0.0011230707168579102,0.007692253355588097
50,1.6705044734250273e+18,-0.0005464404821395874,0.0011419765651226044,0.007812135798712205
51,1.6705044734293422e+18,-0.0005338788032531738,0.0011613480746746063,0.008055667162062408
52,1.6705044734335887e+18,-0.0005199164152145386,0.0011801980435848236,0.007991554233938825
53,1.6705044734373834e+18,-0.0005144625902175903,0.001180361956357956,0.008299634573033066
54,1.6705044734420388e+18,-0.0005070865154266357,0.0011982433497905731,0.008484641963578898
55,1.6705044734461755e+18,-0.000501289963722229,0.0012135133147239685,0.00854255383096536
56,1.6705044734501757e+18,-0.0004954934120178223,0.0012278370559215546,0.008668280494234848
57,1.6705044734556347e+18,-0.000498846173286438,0.0012452565133571625,0.008604324741256386
58,1.6705044734598915e+18,-0.0004984289407730103,0.0012461207807064056,0.00879104658441121
59,1.6705044734631777e+18,-0.0004938691854476929,0.0012617558240890503,0.008791736258077387
60,1.6705044734679007e+18,-0.0004996657371520996,0.0012647546827793121,0.008853120687757343
61,1.6705044734709548e+18,-0.0004991888999938965,0.0012816265225410461,0.008971436597497773
62,1.670504473474913e+18,-0.0005056858062744141,0.0012989416718482971,0.009035226497745574
63,1.6705044734791933e+18,-0.0005183666944503784,0.0013111568987369537,0.009097328927070603
64,1.6705044734830426e+18,-0.0005370378494262695,0.0013271532952785492,0.008974938847596592
65,1.670504473487416e+18,-0.0005485415458679199,0.0013487190008163452,0.00891161156871978
66,1.6705044734921467e+18,-0.0005674213171005249,0.0013588331639766693,0.008854191019942892
67,1.6705044734960238e+18,-0.0005825310945510864,0.0013799555599689484,0.008545281268945937
68,1.6705044735004076e+18,-0.0005976259708404541,0.0013982690870761871,0.008420995976735624
69,1.6705044735056492e+18,-0.0006054788827896118,0.001398574560880661,0.008298542127955777
70,1.6705044735082952e+18,-0.0006274133920669556,0.0014105327427387238,0.008178542786726695
71,1.6705044735127165e+18,-0.0006447881460189819,0.0014176778495311737,0.0080548191375176
72,1.6705044735196362e+18,-0.0006607621908187866,0.0014251768589019775,0.007995716515311946
73,1.6705044735211886e+18,-0.0006587356328964233,0.001438230276107788,0.007687923353546289
74,1.6705044735252308e+18,-0.0006692558526992798,0.0014448128640651703,0.007571851578189959
75,1.6705044735293304e+18,-0.0006794482469558716,0.001454569399356842,0.00707694567631334
76,1.6705044735339133e+18,-0.00067940354347229,0.0014629960060119629,0.0070196479274302614
77,1.6705044735379154e+18,-0.0006868839263916016,0.0014487020671367645,0.006906712048560193
78,1.6705044735416868e+18,-0.0006901025772094727,0.0014557279646396637,0.006655323556444825
79,1.67050447354616e+18,-0.0006777197122573853,0.00145629420876503,0.006473717921620548
80,1.6705044735510198e+18,-0.0006803423166275024,0.001454729586839676,0.0065416097712049925
81,1.670504473554573e+18,-0.00067177414894104,0.0014661550521850586,0.005985189482133446
82,1.6705044735586355e+18,-0.0006781667470932007,0.0014568157494068146,0.006052993221520309
83,1.6705044735627912e+18,-0.0006765872240066528,0.0014738626778125763,0.005803400457466079
84,1.670504473567033e+18,-0.0006741732358932495,0.0014578700065612793,0.005043169089756994
85,1.6705044735712484e+18,-0.0006778538227081299,0.001466754823923111,0.0054368967199851514
86,1.6705044735753551e+18,-0.0007007718086242676,0.0014544613659381866,0.005752315155213905
87,1.6705044735798572e+18,-0.0007057636976242065,0.0014586858451366425,0.005503891675676442
88,1.6705044735838282e+18,-0.0007044672966003418,0.0014767982065677643,0.0051925171755398125
89,1.6705044735878892e+18,-0.000723913311958313,0.001482207328081131,0.005010914164072622
90,1.67050447359133e+18,-0.0007297545671463013,0.0014931373298168182,0.00482414398847153
91,1.6705044735970045e+18,-0.0007392466068267822,0.0015083067119121552,0.004825140640366099
92,1.6705044735994657e+18,-0.0007260441780090332,0.0015218593180179596,0.004884723778121991
93,1.670504473604527e+18,-0.0007390081882476807,0.0015312843024730682,0.004887806433644615
94,1.6705044736082386e+18,-0.0007407963275909424,0.0015430636703968048,0.00507112028439316
95,1.6705044736129413e+18,-0.0007949620485305786,0.0015025287866592407,0.004581563687681811
96,1.670504473616549e+18,-0.000792771577835083,0.0014998838305473328,0.004635527507741211
97,1.6705044736220334e+18,-0.0007715672254562378,0.0015630796551704407,0.004885806250868763
98,1.6705044736249277e+18,-0.0007704347372055054,0.0015520676970481873,0.005195083026117153
99,1.6705044736289764e+18,-0.0008010566234588623,0.0015094056725502014,0.004572465201779563
100,1.6705044736331292e+18,-0.0007853955030441284,0.0015599541366100311,0.005067822585548942
101,1.6705044736371377e+18,-0.0007885098457336426,0.0015636906027793884,0.005256470145897696
102,1.6705044736430134e+18,-0.0008040368556976318,0.0015231519937515259,0.00469304870300058
103,1.670504473645846e+18,-0.0008056461811065674,0.0015276707708835602,0.004686946127324454
104,1.670504473650111e+18,-0.0007917284965515137,0.0015919990837574005,0.005126616677292528
105,1.670504473653491e+18,-0.0007904618978500366,0.0015974044799804688,0.005377405368417687
106,1.6705044736589443e+18,-0.0008097738027572632,0.0015532560646533966,0.004812723831529864
107,1.6705044736626988e+18,-0.0008047819137573242,0.0015539340674877167,0.00493395995501178
108,1.6705044736671214e+18,-0.0007828027009963989,0.0016183145344257355,0.005186245042168247
109,1.670504473671321e+18,-0.0007749050855636597,0.0016175471246242523,0.005499871535367351
110,1.6705044736752694e+18,-0.000795707106590271,0.0015714392066001892,0.004873498740420645
111,1.670504473679529e+18,-0.0007992684841156006,0.0015791170299053192,0.004812198411000335
112,1.6705044736831278e+18,-0.0008041113615036011,0.001582760363817215,0.0046937985850914465
113,1.6705044736887242e+18,-0.0008099377155303955,0.0015927478671073914,0.00462925487537813
114,1.6705044736912824e+18,-0.0008138567209243774,0.0016012974083423615,0.004509730970967407
115,1.6705044736961943e+18,-0.0008195489645004272,0.0016050972044467926,0.004382630294467171
116,1.6705044737001444e+18,-0.0008174329996109009,0.001608584076166153,0.004448199093598948
117,1.6705044737050767e+18,-0.0008289068937301636,0.001628190279006958,0.004262165678325047
118,1.6705044737083802e+18,-0.0007975101470947266,0.0017159581184387207,0.004324796501580241
119,1.6705044737130117e+18,-0.000826612114906311,0.0016928352415561676,0.0035181622038398253
120,1.6705044737170196e+18,-0.0008262693881988525,0.0017228983342647552,0.0032738554035007805
121,1.67050447372133e+18,-0.0008324980735778809,0.0017571039497852325,0.0029726426780889437
122,1.6705044737251945e+18,-0.0008251965045928955,0.0017874054610729218,0.0025562725687640064
123,1.6705044737291965e+18,-0.0008369237184524536,0.0017793476581573486,0.0027545870970742126
124,1.6705044737341345e+18,-0.0008302927017211914,0.0017433799803256989,0.003476086883203111
125,1.6705044737375803e+18,-0.0008189678192138672,0.0017297975718975067,0.003646122207229485
126,1.6705044737414812e+18,-0.0009222030639648438,0.002046719193458557,0.003197260979747929
127,1.6705044737460178e+18,-0.0009281784296035767,0.002057034522294998,0.0030158162007154488
128,1.6705044737511468e+18,-0.00092315673828125,0.001954898238182068,0.0017344178225151552
129,1.6705044737544374e+18,-0.0009193867444992065,0.001932591199874878,0.00124743664556215
130,1.6705044737585874e+18,-0.000927850604057312,0.0018791146576404572,0.0012507467400013628
131,1.6705044737621187e+18,-0.000970199704170227,0.002085108309984207,0.0019631628240690535
132,1.670504473767091e+18,-0.000887647271156311,0.0018687322735786438,0.00276265747137705
133,1.670504473771124e+18,-0.0009078681468963623,0.0018524117767810822,0.0024045974998327946
134,1.6705044737752625e+18,-0.0009227544069290161,0.001906227320432663,0.0016135775776011663
135,1.6705044737792264e+18,-0.0009422898292541504,0.002015482634305954,-3.754334655448055e-05
136,1.670504473783868e+18,-0.0009084194898605347,0.0020089782774448395,0.0006357998326909087
137,1.670504473787835e+18,-0.0008120238780975342,0.0017762035131454468,0.002421570816057095
138,1.6705044737914662e+18,-0.0007958412170410156,0.0017362646758556366,0.001674909161586191
139,1.6705044737967368e+18,-0.0008521378040313721,0.0020321346819400787,0.0010558584994271314
140,1.670504473799334e+18,-0.0007642805576324463,0.0021200738847255707,-0.0009137933906362417
141,1.6705044738039803e+18,-0.0007081776857376099,0.001827634871006012,0.0016497537771611448
142,1.670504473808316e+18,-0.0007433891296386719,0.001924220472574234,0.0008475258244187156
143,1.6705044738135168e+18,-0.0006790310144424438,0.002020563930273056,0.00020871614215178802
144,1.6705044738166513e+18,-0.0006511956453323364,0.0021026283502578735,-0.0007223638254325593
145,1.6705044738209595e+18,-0.0005279034376144409,0.0019027218222618103,0.0006879369798209467
146,1.6705044738250383e+18,-0.000528872013092041,0.0020843185484409332,-0.00016769917632020181
147,1.6705044738299866e+18,-0.00039207935333251953,0.0021036192774772644,0.0004500224512336004
148,1.6705044738325983e+18,-0.0003259629011154175,0.0020754821598529816,0.001915816901647549
149,1.6705044738377385e+18,-0.00025475025177001953,0.0020262598991394043,0.000682292011699337
150,1.6705044738418537e+18,-0.00019761919975280762,0.002049587666988373,-0.0009180734205702645
151,1.6705044738461985e+18,-0.00014966726303100586,0.001962367445230484,-0.00012070940262942642
152,1.670504473850196e+18,-7.541477680206299e-05,0.002027273178100586,0.002157458307279869
153,1.6705044738539832e+18,1.043081283569336e-06,0.002045329660177231,0.0006369712315501541
154,1.6705044738595382e+18,6.029009819030762e-05,0.0021054111421108246,0.0003859690768810431
155,1.6705044738623703e+18,0.00012573599815368652,0.0020593516528606415,0.002045669045076526
156,1.670504473866843e+18,0.00020997226238250732,0.002155143767595291,-0.0009559139521417848
157,1.6705044738710295e+18,0.000396043062210083,0.0021907277405261993,-0.0007792590649813302
158,1.6705044738757553e+18,0.000497862696647644,0.002140212804079056,-0.001218706647286627
159,1.670504473879339e+18,0.0005362331867218018,0.0019392035901546478,0.0026034828748235928
160,1.6705044738836508e+18,0.0005906075239181519,0.0021433010697364807,0.004601218708000232
161,1.6705044738878484e+18,0.0007597655057907104,0.0020807944238185883,0.005769868271508383
162,1.6705044738915402e+18,0.0008540302515029907,0.0020577237010002136,0.00416694260901429
163,1.6705044738961695e+18,0.0010669529438018799,0.0018574334681034088,0.006363113144017385
164,1.6705044738999378e+18,0.0011336952447891235,0.0019344501197338104,0.006418547461301882
165,1.670504473905249e+18,0.0014218538999557495,0.0020476914942264557,0.009111170937551538
166,1.67050447390821e+18,0.0017692595720291138,0.0019273869693279266,0.0137640755985029
167,1.67050447391254e+18,0.002062559127807617,0.001980248838663101,0.013536592895253996
168,1.670504473916574e+18,0.002119988203048706,0.002346232533454895,0.011125658115911596
169,1.6705044739213699e+18,0.002410188317298889,0.0021914616227149963,0.012519874243195783
170,1.6705044739253752e+18,0.0026845932006835938,0.0020351894199848175,0.016126508086575342
171,1.6705044739292134e+18,0.00301361083984375,0.0018437579274177551,0.020640858864844347
172,1.6705044739335503e+18,0.0034187883138656616,0.0014759264886379242,0.024390565103356243
173,1.670504473937769e+18,0.003641292452812195,0.0012814514338970184,0.020236857272495135
174,1.6705044739413012e+18,0.0038252323865890503,0.0012667812407016754,0.024162394873156412
175,1.6705044739457341e+18,0.0040982067584991455,0.0012790188193321228,0.02691161992162816
176,1.670504473951439e+18,0.004521474242210388,0.0012113824486732483,0.02598521910556073
177,1.6705044739541816e+18,0.004786700010299683,0.0013459958136081696,0.031069590938669123
178,1.6705044739586808e+18,0.004986315965652466,0.0018435977399349213,0.03384253898508227
179,1.6705044739625318e+18,0.005421280860900879,0.001879226416349411,0.040194646628823216
180,1.6705044739674268e+18,0.005881384015083313,0.0018543712794780731,0.041113531998566044
181,1.6705044739709757e+18,0.006174266338348389,0.0018488280475139618,0.04244321185819255
182,1.6705044739752177e+18,0.006486967206001282,0.0018524788320064545,0.04476621006757897
183,1.6705044739790648e+18,0.006902962923049927,0.0017703361809253693,0.048228097420072835
184,1.67050447398317e+18,0.007285788655281067,0.0018912255764007568,0.04971747721129538
185,1.670504473987121e+18,0.007741138339042664,0.0019454844295978546,0.05470530267521334
186,1.670504473991344e+18,0.008144617080688477,0.0018620789051055908,0.056820711045681094
187,1.6705044739967608e+18,0.008493512868881226,0.0018531866371631622,0.05875634281039033
188,1.6705044740001436e+18,0.008963212370872498,0.0017855390906333923,0.0641027737493467
189,1.6705044740044293e+18,0.009358465671539307,0.001855161041021347,0.06485352546694467
190,1.6705044740083932e+18,0.00980938971042633,0.0019480176270008087,0.06597573274424162
191,1.670504474011526e+18,0.010425493121147156,0.0020854435861110687,0.0688712098906159
192,1.6705044740165885e+18,0.010908082127571106,0.0020886659622192383,0.07174372687586716
193,1.6705044740202947e+18,0.011357635259628296,0.002025838941335678,0.07626938480671597
194,1.6705044740251955e+18,0.01173257827758789,0.002087324857711792,0.07871653731102457
195,1.6705044740294116e+18,0.012283891439437866,0.0019540488719940186,0.08268970432754608
196,1.6705044740336632e+18,0.01276448369026184,0.0018184855580329895,0.08780295284596251
197,1.6705044740377864e+18,0.013035401701927185,0.0019068643450737,0.0888355575282842
198,1.6705044740412905e+18,0.01349569857120514,0.0019670315086841583,0.092018349536513
199,1.6705044740457684e+18,0.014033228158950806,0.002022530883550644,0.09435775474088937
200,1.6705044740500147e+18,0.014484301209449768,0.00208171084523201,0.09622880765974995
201,1.670504474054378e+18,0.014973357319831848,0.0021987110376358032,0.10032980614162401
202,1.6705044740593946e+18,0.015486657619476318,0.002193022519350052,0.10352560525736187
203,1.6705044740630195e+18,0.01586666703224182,0.0021794475615024567,0.10614280275620613
204,1.6705044740676698e+18,0.016473859548568726,0.002207741141319275,0.1117043201262764
205,1.6705044740705792e+18,0.01688419282436371,0.0022026188671588898,0.11388388012528616
206,1.670504474075029e+18,0.01754176616668701,0.002022862434387207,0.11962346820387526
207,1.6705044740791734e+18,0.01802755892276764,0.002019088715314865,0.12319502554437012
208,1.6705044740832773e+18,0.018491074442863464,0.0020818449556827545,0.12588023247685975
209,1.670504474087658e+18,0.019053131341934204,0.00221981480717659,0.12838536668746103
210,1.6705044740917827e+18,0.019485250115394592,0.0023096315562725067,0.1305855530810034
211,1.6705044740960246e+18,0.020115360617637634,0.002284768968820572,0.13571827055331598
212,1.6705044741002719e+18,0.02074296772480011,0.0022976212203502655,0.13932066880010874
213,1.6705044741040924e+18,0.02115584909915924,0.0023494623601436615,0.1416996273834774
214,1.6705044741082e+18,0.021768584847450256,0.0023557059466838837,0.14565332819732113
215,1.6705044741122755e+18,0.022244572639465332,0.0023468956351280212,0.14962304437556329
216,1.6705044741167347e+18,0.022648736834526062,0.002360329031944275,0.15204144028076838
217,1.6705044741217428e+18,0.023208588361740112,0.002351071685552597,0.15581801000952122
